#Charm hadron energy (GeV), Meson(D)-ice, Baryon(Lambda)-ice cross-section(mb)
1.000000000000000000e+02 5.350062580180460259e+01 7.482339001165870229e+01
1.028073223830864720e+02 5.356956135915621786e+01 7.491979995109565493e+01
1.056934553557988323e+02 5.363845914646453394e+01 7.501615706717517185e+01
1.086606113854596884e+02 5.370731846964839207e+01 7.511246038918883983e+01
1.117110650504824179e+02 5.377613864339152627e+01 7.520870895868650052e+01
1.148471547840289020e+02 5.384491899092065381e+01 7.530490182916568642e+01
1.180712846666190359e+02 5.391365884377021445e+01 7.540103806574283851e+01
1.213859262690627645e+02 5.398235754159764355e+01 7.549711674489466873e+01
1.247936205471311411e+02 5.405101443194966038e+01 7.559313695413162293e+01
1.282969797894147632e+02 5.411962887008491663e+01 7.568909779174956043e+01
1.318986896198670422e+02 5.418820021875976778e+01 7.578499836653031707e+01
1.356015110565633393e+02 5.425538594489296429e+01 7.587896107657979883e+01
1.394082826282578651e+02 5.432177753106125095e+01 7.597181314084843962e+01
1.433219225503573853e+02 5.438811119022250296e+01 7.606458419120419023e+01
1.473454309619835954e+02 5.445440175864521137e+01 7.615729497693520500e+01
1.514818922258345708e+02 5.452064863152492791e+01 7.624994465219124606e+01
1.557344772926135192e+02 5.458685121040215193e+01 7.634253237999575958e+01
1.601064461318317740e+02 5.465300890300821379e+01 7.643505733203039654e+01
1.646011502308549836e+02 5.471912112310297971e+01 7.652751868840802274e+01
1.692220351641037155e+02 5.478518729032513335e+01 7.661991563746336453e+01
1.739726432343800866e+02 5.486399104956280581e+01 7.673012676721107539e+01
1.788566161883461803e+02 5.494348971426776274e+01 7.684130975816636067e+01
1.838776980082326986e+02 5.502292341959489619e+01 7.695240190007477565e+01
1.890397377819221560e+02 5.510229159155008460e+01 7.706340239017588090e+01
1.943466926536020196e+02 5.518159366151828493e+01 7.717431043323212236e+01
1.998026308572550818e+02 5.526082906610758272e+01 7.728512524131080852e+01
2.054117348353064187e+02 5.533999724699665279e+01 7.739584603357072012e+01
2.111783044448244482e+02 5.541909765079814321e+01 7.750647203607101687e+01
2.171067602537264918e+02 5.549652859524626791e+01 7.761476321339061712e+01
2.232016469295234629e+02 5.557382239643205679e+01 7.772286258877049647e+01
2.294676367231936069e+02 5.565104629392221369e+01 7.783086420021953700e+01
2.359095330508636152e+02 5.572819976375828332e+01 7.793876731495474530e+01
2.425322741760352869e+02 5.580528228616612552e+01 7.804657120604510112e+01
2.493409369951880308e+02 5.588229334542629800e+01 7.815427515223036892e+01
2.563407409296514743e+02 5.595923242977397649e+01 7.826187843778093622e+01
2.635370519267393092e+02 5.603609903126269387e+01 7.836938035230745925e+01
2.709353865732051645e+02 5.611289264567119517e+01 7.847678019063044985e+01
2.785414163241769074e+02 5.618961277238359031e+01 7.858407725261268695e+01
2.863609718508116089e+02 5.626625891429026893e+01 7.869127084302073172e+01
2.944000475100033896e+02 5.634283057767840575e+01 7.879836027137166354e+01
3.026648059395691917e+02 5.642756676379025293e+01 7.891686820668134317e+01
3.111615827824359712e+02 5.651785545243254205e+01 7.904314160372437925e+01
3.198968915434537621e+02 5.660804764669470046e+01 7.916928004839013511e+01
3.288774285825510333e+02 5.669814286372014323e+01 7.929528286537873782e+01
3.381100782480685325e+02 5.678940760661501486e+01 7.942292132473498611e+01
3.476019181541977332e+02 5.688370717311945413e+01 7.955480414174407144e+01
3.573602246065788108e+02 5.697791139409802241e+01 7.968655361310796081e+01
3.673924781802074335e+02 5.707203586304632381e+01 7.981819154713602416e+01
3.777063694539368726e+02 5.716604824087659864e+01 7.994967271594283886e+01
3.883098049059605046e+02 5.725996375213973266e+01 8.008101841184964087e+01
3.992109129748053533e+02 5.735378189188096343e+01 8.021222792865100359e+01
4.104180502904709442e+02 5.744750215726494247e+01 8.034330056310578527e+01
4.219398080805024165e+02 5.754112404750036802e+01 8.047423561483144283e+01
4.337850187558988750e+02 5.763464706376426960e+01 8.060503238619826050e+01
4.459627626819095667e+02 5.772807070911849792e+01 8.073569018221257920e+01
4.584823751389096174e+02 5.782139448843374652e+01 8.086620831041045676e+01
4.713534534786907102e+02 5.791461790833321999e+01 8.099658608077895394e+01
4.845858644816495939e+02 5.800774047710097392e+01 8.112682280562792414e+01
4.981897519205165281e+02 5.810076170462939871e+01 8.125691779951652904e+01
5.121755443364240818e+02 5.819368110234996294e+01 8.138687037915646272e+01
5.265539630332755223e+02 5.829050606606560336e+01 8.152228509467394701e+01
5.413360302965380697e+02 5.839675583046392404e+01 8.167088088100499021e+01
5.565330778427645555e+02 5.850184743551017874e+01 8.181785692163036572e+01
5.721567555063252257e+02 5.860681532114938364e+01 8.196465993427131025e+01
5.882190401699955373e+02 5.871165899369884045e+01 8.211128922848710943e+01
6.047322449462649274e+02 5.881637795975196781e+01 8.225774411422315779e+01
6.217090286163827386e+02 5.892097172613956246e+01 8.240402390175685809e+01
6.391624053344005461e+02 5.902543979987313350e+01 8.255012790161829628e+01
6.571057546036270196e+02 5.912978168810099078e+01 8.269605542452892166e+01
6.755528315331639533e+02 5.923399689806691271e+01 8.284180578134369455e+01
6.945177773823696725e+02 5.933808493706735732e+01 8.298737828299127273e+01
7.140151304013403433e+02 5.944204531239429912e+01 8.313277224039397595e+01
7.340598369757211685e+02 5.954587753132010874e+01 8.327798696444678228e+01
7.546672630843886509e+02 5.964958110103665234e+01 8.342302176593206298e+01
7.758532060787836144e+02 5.975315552863455082e+01 8.356787595549053549e+01
7.976339067929280873e+02 5.985660032105051442e+01 8.371254884354775072e+01
8.200260619934131228e+02 5.995991498504940864e+01 8.385703974028884033e+01
8.430468371788966806e+02 6.006309902717891447e+01 8.400134795559527845e+01
8.667138797389233105e+02 6.016396288284249039e+01 8.414241127022550870e+01
8.910453324821512524e+02 6.026455725174174205e+01 8.428309769368921422e+01
9.160598475443709958e+02 6.036502376861896124e+01 8.442360530949291331e+01
9.417766006869518378e+02 6.048160759467298675e+01 8.458665381509744918e+01
9.682153059967085937e+02 6.059884124967084063e+01 8.475061114006204832e+01
9.953962309984233343e+02 6.071589441701615897e+01 8.491431604371727815e+01
1.023340212191642308e+03 6.083278279489240958e+01 8.507779048078394624e+01
1.052068671023622755e+03 6.094950588618075216e+01 8.524103375601569610e+01
1.081603630310709377e+03 6.106606319168137276e+01 8.540404517125574557e+01
1.111967731120699000e+03 6.118245421010539076e+01 8.556682402542571708e+01
1.143184250129150314e+03 6.129867843806528072e+01 8.572936961451216575e+01
1.175277117462945171e+03 6.141473537006774563e+01 8.589168123155654655e+01
1.208270935044776024e+03 6.153062449850445859e+01 8.605375816664236766e+01
1.242190995452617472e+03 6.164634531363996217e+01 8.621559970687833641e+01
1.277063301308644668e+03 6.176189730361273433e+01 8.637720513639958142e+01
1.312914585212465227e+03 6.187727995442437390e+01 8.653857373635277384e+01
1.349772330233941830e+03 6.194011836607737820e+01 8.662645650243938178e+01
1.387664790981308442e+03 6.205478907766595853e+01 8.678682941859726441e+01
1.426621015260738432e+03 6.216939459429588055e+01 8.694711115623626085e+01
1.466670866343968555e+03 6.228393526934289071e+01 8.710730220957067615e+01
1.507845045861050949e+03 6.239841145423523727e+01 8.726740307009104924e+01
1.550175117335770437e+03 6.251282349844253616e+01 8.742741422654866312e+01
1.593693530381776100e+03 6.262717174948437560e+01 8.758733616496768093e+01
1.638433645577984635e+03 6.275398290469808416e+01 8.776468811893424515e+01
1.684429760042315138e+03 6.288751377285820610e+01 8.795143793872053095e+01
1.731717133723352845e+03 6.302093740991679738e+01 8.813803779026977736e+01
1.780332016430113754e+03 6.315425439842579181e+01 8.832448848831099042e+01
1.830311675620612959e+03 6.328746531731170677e+01 8.851079084250282847e+01
1.881694424970555474e+03 6.342057074188966226e+01 8.869694565745318471e+01
1.934519653744044263e+03 6.355357124388201129e+01 8.888295373274536360e+01
1.988827856988809799e+03 6.368646739142787538e+01 8.906881586295124009e+01
2.044660666579117787e+03 6.381925974910209476e+01 8.925453283765794765e+01
2.102060883130158345e+03 6.395194887791396354e+01 8.944010544146591712e+01
2.161072508808376369e+03 6.408321118940838801e+01 8.962368256751979345e+01
2.221740781062884707e+03 6.421367205474193440e+01 8.980613882970023099e+01
2.284112207303825471e+03 6.434403422092316305e+01 8.998845705601549128e+01
2.348234600554276312e+03 6.447429823564597484e+01 9.017063801244387378e+01
2.414157116103017870e+03 6.460446464296009594e+01 9.035268245986701174e+01
2.481930289186255322e+03 6.473453398330275377e+01 9.053459115411426694e+01
2.551606073727186413e+03 6.486450679351933957e+01 9.071636484599167716e+01
2.623237882163123686e+03 6.499438360687037175e+01 9.089800428129167642e+01
2.696880626390692669e+03 6.512416495306987940e+01 9.107951020084665572e+01
2.772590759860481285e+03 6.525385135829166927e+01 9.126088334053793005e+01
2.850426320853434845e+03 6.539101016332384120e+01 9.145270701752581033e+01
2.930446976972144512e+03 6.554228729657280894e+01 9.166427590613778875e+01
3.012714070881164389e+03 6.569341296681342612e+01 9.187563296590521134e+01
3.097290667331406894e+03 6.584438798600812959e+01 9.208677933239953006e+01
3.184241601504652863e+03 6.599521316062252652e+01 9.229771613350453663e+01
3.273633528715247849e+03 6.614588929167577191e+01 9.250844448948697618e+01
3.365534975507094259e+03 6.629637475761181520e+01 9.271890619044971515e+01
3.460016392185108998e+03 6.644462271700125200e+01 9.292623862287621250e+01
3.557150206821385837e+03 6.659272581608108510e+01 9.313336846067358010e+01
3.657010880777493185e+03 6.674068484676753599e+01 9.334029681137759837e+01
3.759674965785467521e+03 6.688850059540710902e+01 9.354702477473443878e+01
3.865221162631261905e+03 6.703617384284072500e+01 9.375355344279051906e+01
3.973730381485608177e+03 6.718370536442336061e+01 9.395988389991985912e+01
4.085285803928565656e+03 6.733109593007860383e+01 9.416601722290032228e+01
4.199972946715306534e+03 6.747834630433315795e+01 9.437195448096206007e+01
4.317879727332021503e+03 6.762545724636234468e+01 9.457769673585102055e+01
4.439096531392170618e+03 6.777242951002624238e+01 9.478324504187941102e+01
4.563716281924758732e+03 6.791926384390440319e+01 9.498860044597448393e+01
4.691834510607798620e+03 6.806596099135008160e+01 9.519376398775409598e+01
4.823549431001467383e+03 6.821252169051879832e+01 9.539873669956699587e+01
4.958962013837211998e+03 6.836004195340130707e+01 9.560505141082235525e+01
5.098176064420425064e+03 6.852953586748226655e+01 9.584209740884233497e+01
5.241298302206061635e+03 6.869882098899378775e+01 9.607885139966386134e+01
5.388438442608223340e+03 6.886778642279618623e+01 9.631515829070326618e+01
5.539709281106400340e+03 6.903601023285308713e+01 9.655042798260861048e+01
5.695226779712825191e+03 6.920403678872160924e+01 9.678542180433775854e+01
5.855110155867243520e+03 6.937186711469770728e+01 9.702014118842146218e+01
6.019481973827274487e+03 6.953950222776082057e+01 9.725458755715807513e+01
6.188468238624383048e+03 6.970694313760755279e+01 9.748876232266049158e+01
6.362198492657488714e+03 6.987419084672541203e+01 9.772266688695924586e+01
6.540805914998259141e+03 7.004124635045758396e+01 9.795630264209326299e+01
6.724427423484249630e+03 7.020811063705870936e+01 9.818967097018769152e+01
6.913203779678127830e+03 7.037478468775326235e+01 9.842277324353568702e+01
7.107279696773419346e+03 7.054126947679414172e+01 9.865561082468030918e+01
7.306803950529507347e+03 7.070756597153264522e+01 9.888818506651226414e+01
7.511929493320968504e+03 7.087367513246428530e+01 9.912049731233422278e+01
7.722813571388642231e+03 7.103959791329064899e+01 9.935254889594712324e+01
7.939617845382275846e+03 7.120533526098088828e+01 9.958434114173626028e+01
8.162508514287228536e+03 7.137088811583008408e+01 9.981587536475291245e+01
8.391656442830160813e+03 7.153625741150653994e+01 1.000471528707804509e+02
8.627237292461450124e+03 7.169751649097092638e+01 1.002726820270258798e+02
8.869431656014703549e+03 7.187581444546484022e+01 1.005220409305422891e+02
9.118425196146570670e+03 7.206008946014355843e+01 1.007797590616121397e+02
9.374408787663000112e+03 7.224410525368780611e+01 1.010371146585293332e+02
9.637578663841088201e+03 7.242786314734802033e+01 1.012941095691308533e+02
9.908136566858665901e+03 7.261136445234363634e+01 1.015507456272247993e+02
1.018628990244688612e+04 7.279461046996094353e+01 1.018070246527273497e+02
1.047225189888435489e+04 7.297760249166130109e+01 1.020629484518139520e+02
1.076624177045493343e+04 7.316034179916040614e+01 1.023185188170302098e+02
1.106848488549411923e+04 7.334282966453530150e+01 1.025737375274416507e+02
1.137921293915313981e+04 7.352506735030550544e+01 1.028286063487469875e+02
1.169866413101305807e+04 7.370705610953412190e+01 1.030831270334198280e+02
1.202708334768512032e+04 7.388881674592539639e+01 1.033373286765156109e+02
1.236472235053714940e+04 7.407031164857369276e+01 1.035911586772391644e+02
1.271183996869030125e+04 7.425156133130464298e+01 1.038446457252357078e+02
1.306870229743347591e+04 7.443256701027740974e+01 1.040977915213667160e+02
1.343558290220826348e+04 7.461258040840957051e+01 1.043495495614626094e+02
1.381276302832009424e+04 7.478574852683024687e+01 1.045917341241287630e+02
1.420053181653681713e+04 7.495869213554696842e+01 1.048336046983716301e+02
1.459918652473977090e+04 7.513141241917416835e+01 1.050751629409356980e+02
1.500903275579736510e+04 7.530391055257065602e+01 1.053164104949217545e+02
1.543038469183564484e+04 7.548730934714645002e+01 1.055729031868959993e+02
1.586356533508589564e+04 7.568387968720955428e+01 1.058478169659189660e+02
1.630890675549334264e+04 7.588013356258117881e+01 1.061222881527164645e+02
1.676675034527701064e+04 7.607607257074856477e+01 1.063963189814570001e+02
1.723744708063620055e+04 7.627169829616795482e+01 1.066699116680845094e+02
1.772135779080358407e+04 7.646701231039300239e+01 1.069430684104979719e+02
1.821885343465165352e+04 7.666201617222897369e+01 1.072157913887671583e+02
1.873031538506434663e+04 7.685671142786537757e+01 1.074880827653179409e+02
1.925613572129198656e+04 7.705109961101955207e+01 1.077599446851333056e+02
1.979671752951332746e+04 7.724518224304922853e+01 1.080313792759106803e+02
2.035247521183579738e+04 7.743896083311508960e+01 1.083023886482892379e+02
2.092383480396979212e+04 7.763243687829206863e+01 1.085729748960056753e+02
2.151123430182167067e+04 7.782088054438737856e+01 1.088365231015109629e+02
2.211512399725488649e+04 7.800367421672048351e+01 1.090921694987570731e+02
2.273596682327715098e+04 7.818619754479713890e+01 1.093474378055895642e+02
2.337423870891812476e+04 7.836845193653506669e+01 1.096023299910541340e+02
2.403042894406969572e+04 7.855043878714523942e+01 1.098568480064254373e+02
2.470504055456825517e+04 7.873215947929826086e+01 1.101109937854397600e+02
2.539859068780729285e+04 7.891361538329049097e+01 1.103647692445273947e+02
2.611161100917462318e+04 7.909480785716230855e+01 1.106181762829779842e+02
2.684464810961965122e+04 7.927931692047127399e+01 1.108762217431525414e+02
2.759826392466180550e+04 7.948289021697745227e+01 1.111609295186628259e+02
2.837303616516211332e+04 7.968610535170446951e+01 1.114451363864157543e+02
2.916955876018793060e+04 7.988896413793510476e+01 1.117288448823809404e+02
2.998844231231024605e+04 8.009146837280979980e+01 1.120120575199521937e+02
3.083031456568276917e+04 8.029361983749855369e+01 1.122947767901878109e+02
3.169582088726115035e+04 8.049542029742502791e+01 1.125770051621239958e+02
3.258562476153229727e+04 8.069687150243130702e+01 1.128587450830053740e+02
3.350040829913136258e+04 8.089797518699411683e+01 1.131399989785872293e+02
3.444087275973823125e+04 8.108731168621906704e+01 1.134047958573645047e+02
3.540773908965269948e+04 8.127411219860016445e+01 1.136660460274849100e+02
3.640174847446137574e+04 8.146061954524260784e+01 1.139268861901694407e+02
3.742366290721976839e+04 8.164683520288139107e+01 1.141873184107083290e+02
3.847426577258505858e+04 8.183276063366177766e+01 1.144473447339872934e+02
3.955436244734701904e+04 8.201839728532000606e+01 1.147069671847402788e+02
4.066478091781862167e+04 8.220374659138590800e+01 1.149661877678328068e+02
4.180637241455761978e+04 8.238880997140114459e+01 1.152250084685672533e+02
4.298001206490798359e+04 8.257358883109117187e+01 1.154834312529233671e+02
4.418659956385941041e+04 8.275808456256815759e+01 1.157414580678419185e+02
4.542705986374042550e+04 8.294229854451590711e+01 1.159990908414834649e+02
4.670234388327330817e+04 8.312623214238469416e+01 1.162563314835007731e+02
4.801342923653445177e+04 8.332729609627956791e+01 1.165375298136902984e+02
4.936132098237916944e+04 8.353084429941461053e+01 1.168222024948242819e+02
5.074705239490466192e+04 8.373402627281305399e+01 1.171063629847454735e+02
5.217168575554354175e+04 8.393684385839402751e+01 1.173900138594729157e+02
5.363631316739245813e+04 8.413558176188145410e+01 1.176679590879610231e+02
5.514205739240301773e+04 8.431959660975623194e+01 1.179253133623105754e+02
5.669007271207433951e+04 8.450333857164226004e+01 1.181822859915025248e+02
5.828154581230839540e+04 8.468680882815694133e+01 1.184388786266913627e+02
5.991769669310612517e+04 8.487000854784378134e+01 1.186950929021455750e+02
6.159977960380168952e+04 8.505293888735593555e+01 1.189509304355043326e+02
6.332908400455114315e+04 8.523560099166959958e+01 1.192063928280759910e+02
6.510693555481467774e+04 8.541799599422448352e+01 1.194614816650346398e+02
6.693469712958668242e+04 8.560012501715083033e+01 1.197161985157373465e+02
6.881376986415669671e+04 8.578198917141315860e+01 1.199705449339254528e+02
7.074559422819878091e+04 8.596358955698575244e+01 1.202245224579697975e+02
7.273165113001453574e+04 8.614492726304077053e+01 1.204781326111339723e+02
7.477346305177580507e+04 8.632600336809856856e+01 1.207313769017844010e+02
7.687259521663720079e+04 8.650681894019389517e+01 1.209842568236228573e+02
7.903065678861347260e+04 8.668737503703611935e+01 1.212367738559105987e+02
8.124930210614047246e+04 8.686767270616947201e+01 1.214889294636923438e+02
8.353023195026787289e+04 8.705733301123292733e+01 1.217541792016685918e+02
8.587519484845179250e+04 8.724064262384979429e+01 1.220105471680645195e+02
8.828598841495149827e+04 8.741373761020163613e+01 1.222526294517530374e+02
9.076446072885356261e+04 8.758664775118353418e+01 1.224944532196391833e+02
9.331251175078240340e+04 8.775937316485639883e+01 1.227360186368372297e+02
9.593209477938231430e+04 8.793193754079408109e+01 1.229773588344404516e+02
9.862521794868784491e+04 8.810429413551064215e+01 1.232184084392681456e+02
1.013939457675291778e+05 8.827646637885116832e+01 1.234592002191694604e+02
1.042404007021557918e+05 8.844845440139482662e+01 1.236997343567661005e+02
1.071667648032864381e+05 8.862025833663959418e+01 1.239400110387619094e+02
1.101752813788387430e+05 8.879187832096488364e+01 1.241800304558905310e+02
1.132682567136153812e+05 8.896331449353374410e+01 1.244197928027787015e+02
1.164480618372685421e+05 8.913456699624448731e+01 1.246592982778785199e+02
1.197171343418965698e+05 8.930563597365495809e+01 1.248985470833616347e+02
1.230779802506663254e+05 8.947652157292058916e+01 1.251375394250324433e+02
1.265331759388942883e+05 8.964722394372830649e+01 1.253762755122359209e+02
1.300853701090570539e+05 8.981774323825108297e+01 1.256147555577938277e+02
1.337372858212497667e+05 8.998807961105529785e+01 1.258529797778752055e+02
1.374917225806420320e+05 9.013018329686207153e+01 1.260517191261699992e+02
1.413515584835395566e+05 9.027068147175548063e+01 1.262482130844821882e+02
1.453197524236895260e+05 9.041123330925080381e+01 1.264447820927163804e+02
1.493993463605256111e+05 9.055183587291901404e+01 1.266414220441247807e+02
