#Energy: GeV, NMuons, Total Events
1.000000000000000000e+02 5.205900000000000000e+04 1.000000000000000000e+06
1.047289838236358577e+02 5.418800000000000000e+04 1.000000000000000000e+06
1.096816005273137904e+02 5.581800000000000000e+04 1.000000000000000000e+06
1.148684256737553540e+02 5.732100000000000000e+04 1.000000000000000000e+06
1.203005349423324191e+02 5.894200000000000000e+04 1.000000000000000000e+06
1.259895277795027226e+02 5.960000000000000000e+04 1.000000000000000000e+06
1.319475521676706080e+02 6.134500000000000000e+04 1.000000000000000000e+06
1.381873305653632258e+02 6.307800000000000000e+04 1.000000000000000000e+06
1.447221870741134353e+02 6.404900000000000000e+04 1.000000000000000000e+06
1.515660758900602900e+02 6.555400000000000000e+04 1.000000000000000000e+06
1.587336111010208697e+02 6.677000000000000000e+04 1.000000000000000000e+06
1.662400978926611970e+02 6.750200000000000000e+04 1.000000000000000000e+06
1.741015652304015475e+02 6.948700000000000000e+04 1.000000000000000000e+06
1.823348000868440408e+02 7.033600000000000000e+04 1.000000000000000000e+06
1.909573832878096766e+02 7.208200000000000000e+04 1.000000000000000000e+06
1.999877270535286868e+02 7.310400000000000000e+04 1.000000000000000000e+06
2.094451143151468671e+02 7.378800000000000000e+04 1.000000000000000000e+06
2.193497398905060152e+02 7.497600000000000000e+04 1.000000000000000000e+06
2.297227536071151235e+02 7.621100000000000000e+04 1.000000000000000000e+06
2.405863054644066779e+02 7.694800000000000000e+04 1.000000000000000000e+06
2.519635929317016121e+02 7.784500000000000000e+04 1.000000000000000000e+06
2.638789104828934455e+02 7.904600000000000000e+04 1.000000000000000000e+06
2.763577014736160322e+02 7.989700000000000000e+04 1.000000000000000000e+06
2.894266124716751847e+02 8.077800000000000000e+04 1.000000000000000000e+06
3.031135501567579240e+02 8.172500000000000000e+04 1.000000000000000000e+06
3.174477409109193218e+02 8.234800000000000000e+04 1.000000000000000000e+06
3.324597932270941669e+02 8.364600000000000000e+04 1.000000000000000000e+06
3.481817630688966574e+02 8.470000000000000000e+04 1.000000000000000000e+06
3.646472223212748531e+02 8.573200000000000000e+04 1.000000000000000000e+06
3.818913304781854094e+02 8.608900000000000000e+04 1.000000000000000000e+06
3.999509097203665533e+02 8.711800000000000000e+04 1.000000000000000000e+06
4.188645235435270706e+02 8.753400000000000000e+04 1.000000000000000000e+06
4.386725591048498814e+02 8.836900000000000000e+04 1.000000000000000000e+06
4.594173134636476448e+02 8.888200000000000000e+04 1.000000000000000000e+06
4.811430839003259621e+02 8.993900000000000000e+04 1.000000000000000000e+06
5.038962625065150291e+02 9.078200000000000000e+04 1.000000000000000000e+06
5.277254352483537332e+02 9.156500000000000000e+04 1.000000000000000000e+06
5.526814857144603366e+02 9.215900000000000000e+04 1.000000000000000000e+06
5.788177037701274230e+02 9.304100000000000000e+04 1.000000000000000000e+06
6.061898993497571837e+02 9.326500000000000000e+04 1.000000000000000000e+06
6.348565216305216836e+02 9.391900000000000000e+04 1.000000000000000000e+06
6.648787838417263174e+02 9.467800000000000000e+04 1.000000000000000000e+06
6.963207939763883587e+02 9.516200000000000000e+04 1.000000000000000000e+06
7.292496916841444090e+02 9.619100000000000000e+04 1.000000000000000000e+06
7.637357916378026630e+02 9.622500000000000000e+04 1.000000000000000000e+06
7.998527336796707914e+02 9.616900000000000000e+04 1.000000000000000000e+06
8.376776400682924759e+02 9.773500000000000000e+04 1.000000000000000000e+06
8.772912801613356351e+02 9.720100000000000000e+04 1.000000000000000000e+06
9.187782428863339419e+02 9.777300000000000000e+04 1.000000000000000000e+06
9.622271173675134150e+02 9.896000000000000000e+04 1.000000000000000000e+06
1.007730682094461713e+03 9.936000000000000000e+04 1.000000000000000000e+06
1.055386103036523082e+03 9.993500000000000000e+04 1.000000000000000000e+06
1.105295141126022145e+03 1.003440000000000000e+05 1.000000000000000000e+06
1.157564369553303550e+03 1.000370000000000000e+05 1.000000000000000000e+06
1.212305401337652711e+03 1.009860000000000000e+05 1.000000000000000000e+06
1.269635127659972795e+03 1.010430000000000000e+05 1.000000000000000000e+06
1.329675967466212569e+03 1.014090000000000000e+05 1.000000000000000000e+06
1.392556128874463411e+03 1.021090000000000000e+05 1.000000000000000000e+06
1.458409882943986304e+03 1.024580000000000000e+05 1.000000000000000000e+06
1.527377850390714002e+03 1.024640000000000000e+05 1.000000000000000000e+06
1.599607301861487940e+03 1.027690000000000000e+05 1.000000000000000000e+06
1.675252472408215453e+03 1.029060000000000000e+05 1.000000000000000000e+06
1.754474890833459767e+03 1.029650000000000000e+05 1.000000000000000000e+06
1.837443724610726804e+03 1.034210000000000000e+05 1.000000000000000000e+06
1.924336141115980126e+03 1.038810000000000000e+05 1.000000000000000000e+06
2.015337685941733071e+03 1.039700000000000000e+05 1.000000000000000000e+06
2.110642679101554677e+03 1.043760000000000000e+05 1.000000000000000000e+06
2.210454629971021404e+03 1.051610000000000000e+05 1.000000000000000000e+06
2.314986671851160736e+03 1.055060000000000000e+05 1.000000000000000000e+06
2.424462017082328202e+03 1.050960000000000000e+05 1.000000000000000000e+06
2.539114433680347247e+03 1.050450000000000000e+05 1.000000000000000000e+06
2.659188744512693575e+03 1.055320000000000000e+05 1.000000000000000000e+06
2.784941350080644042e+03 1.052850000000000000e+05 1.000000000000000000e+06
2.916640776023706621e+03 1.061210000000000000e+05 1.000000000000000000e+06
3.054568246515431838e+03 1.060020000000000000e+05 1.000000000000000000e+06
3.199018284775067059e+03 1.055230000000000000e+05 1.000000000000000000e+06
3.350299341977229687e+03 1.056300000000000000e+05 1.000000000000000000e+06
3.508734455902715126e+03 1.063360000000000000e+05 1.000000000000000000e+06
3.674661940736687939e+03 1.068260000000000000e+05 1.000000000000000000e+06
3.848436109487432986e+03 1.069990000000000000e+05 1.000000000000000000e+06
4.030428030568050417e+03 1.065310000000000000e+05 1.000000000000000000e+06
4.221026320156903239e+03 1.069430000000000000e+05 1.000000000000000000e+06
4.420637972028530385e+03 1.065020000000000000e+05 1.000000000000000000e+06
4.629689226627267999e+03 1.071630000000000000e+05 1.000000000000000000e+06
4.848626481239078203e+03 1.074150000000000000e+05 1.000000000000000000e+06
5.077917243205403793e+03 1.073360000000000000e+05 1.000000000000000000e+06
5.318051128214196979e+03 1.072920000000000000e+05 1.000000000000000000e+06
5.569540905800135988e+03 1.082390000000000000e+05 1.000000000000000000e+06
5.832923594286206026e+03 1.071030000000000000e+05 1.000000000000000000e+06
6.108761607505040047e+03 1.077360000000000000e+05 1.000000000000000000e+06
6.397643955748430017e+03 1.072810000000000000e+05 1.000000000000000000e+06
6.700187503509589988e+03 1.082830000000000000e+05 1.000000000000000000e+06
7.017038286703829726e+03 1.087320000000000000e+05 1.000000000000000000e+06
7.348872892180387680e+03 1.081270000000000000e+05 1.000000000000000000e+06
7.696399902471158384e+03 1.082520000000000000e+05 1.000000000000000000e+06
8.060361408861344898e+03 1.081090000000000000e+05 1.000000000000000000e+06
8.441534596012985276e+03 1.084290000000000000e+05 1.000000000000000000e+06
8.840733401525063528e+03 1.086320000000000000e+05 1.000000000000000000e+06
9.258810253973953877e+03 1.086100000000000000e+05 1.000000000000000000e+06
9.696657893145520575e+03 1.085530000000000000e+05 1.000000000000000000e+06
1.015521127634569166e+04 1.090740000000000000e+05 1.000000000000000000e+06
1.063544957486011117e+04 1.095280000000000000e+05 1.000000000000000000e+06
1.113839826482618264e+04 1.085180000000000000e+05 1.000000000000000000e+06
1.166513131698196230e+04 1.082500000000000000e+05 1.000000000000000000e+06
1.221677348996793080e+04 1.092150000000000000e+05 1.000000000000000000e+06
1.279450273207873397e+04 1.095390000000000000e+05 1.000000000000000000e+06
1.339955269659337137e+04 1.093470000000000000e+05 1.000000000000000000e+06
1.403321537605484627e+04 1.086900000000000000e+05 1.000000000000000000e+06
1.469684386112447464e+04 1.085720000000000000e+05 1.000000000000000000e+06
1.539185522990205391e+04 1.089390000000000000e+05 1.000000000000000000e+06
1.611973357388155455e+04 1.094920000000000000e+05 1.000000000000000000e+06
1.688203316700362848e+04 1.093910000000000000e+05 1.000000000000000000e+06
1.768038178457208778e+04 1.093280000000000000e+05 1.000000000000000000e+06
1.851648417912154036e+04 1.094320000000000000e+05 1.000000000000000000e+06
1.939212572065831046e+04 1.096970000000000000e+05 1.000000000000000000e+06
2.030917620904738942e+04 1.092870000000000000e+05 1.000000000000000000e+06
2.126959386668691877e+04 1.093260000000000000e+05 1.000000000000000000e+06
2.227542951999556317e+04 1.093310000000000000e+05 1.000000000000000000e+06
2.332883097864158481e+04 1.088880000000000000e+05 1.000000000000000000e+06
2.443204762186491644e+04 1.096410000000000000e+05 1.000000000000000000e+06
2.558743520168589021e+04 1.092280000000000000e+05 1.000000000000000000e+06
2.679746087325689587e+04 1.103000000000000000e+05 1.000000000000000000e+06
2.806470846309838817e+04 1.102750000000000000e+05 1.000000000000000000e+06
2.939188398646890346e+04 1.095130000000000000e+05 1.000000000000000000e+06
3.078182142565079994e+04 1.102360000000000000e+05 1.000000000000000000e+06
3.223748878149026859e+04 1.097560000000000000e+05 1.000000000000000000e+06
3.376199441111340275e+04 1.103410000000000000e+05 1.000000000000000000e+06
3.535859366535182926e+04 1.100040000000000000e+05 1.000000000000000000e+06
3.703069584005141223e+04 1.100670000000000000e+05 1.000000000000000000e+06
3.878187145610719745e+04 1.101880000000000000e+05 1.000000000000000000e+06
4.061585988376979367e+04 1.104750000000000000e+05 1.000000000000000000e+06
4.253657732750391733e+04 1.100560000000000000e+05 1.000000000000000000e+06
4.454812518844988517e+04 1.101950000000000000e+05 1.000000000000000000e+06
4.665479882234468096e+04 1.103400000000000000e+05 1.000000000000000000e+06
4.886109671160326252e+04 1.103430000000000000e+05 1.000000000000000000e+06
5.117173007114609936e+04 1.107960000000000000e+05 1.000000000000000000e+06
5.359163290848514589e+04 1.107670000000000000e+05 1.000000000000000000e+06
5.612597255954965658e+04 1.102780000000000000e+05 1.000000000000000000e+06
5.878016072274911858e+04 1.113920000000000000e+05 1.000000000000000000e+06
6.155986501483514439e+04 1.112300000000000000e+05 1.000000000000000000e+06
6.447102107323869859e+04 1.103970000000000000e+05 1.000000000000000000e+06
6.751984523072493903e+04 1.106820000000000000e+05 1.000000000000000000e+06
7.071284778942995763e+04 1.106970000000000000e+05 1.000000000000000000e+06
7.405684692262441968e+04 1.107530000000000000e+05 1.000000000000000000e+06
7.755898323389001598e+04 1.106890000000000000e+05 1.000000000000000000e+06
8.122673500479719951e+04 1.114580000000000000e+05 1.000000000000000000e+06
8.506793416364170844e+04 1.109000000000000000e+05 1.000000000000000000e+06
8.909078300934142317e+04 1.111850000000000000e+05 1.000000000000000000e+06
9.330387172620360798e+04 1.116920000000000000e+05 1.000000000000000000e+06
9.771619672696181806e+04 1.114490000000000000e+05 1.000000000000000000e+06
1.023371798632521241e+05 1.123740000000000000e+05 1.000000000000000000e+06
1.071766885445503431e+05 1.120610000000000000e+05 1.000000000000000000e+06
1.122450568085305858e+05 1.122390000000000000e+05 1.000000000000000000e+06
1.175531073878369934e+05 1.116000000000000000e+05 1.000000000000000000e+06
1.231121748203892057e+05 1.119940000000000000e+05 1.000000000000000000e+06
1.289341296525715734e+05 1.116770000000000000e+05 1.000000000000000000e+06
1.350314037869872118e+05 1.124160000000000000e+05 1.000000000000000000e+06
1.414170170289023954e+05 1.121000000000000000e+05 1.000000000000000000e+06
1.481046048880676972e+05 1.124040000000000000e+05 1.000000000000000000e+06
1.551084476952840632e+05 1.126300000000000000e+05 1.000000000000000000e+06
1.624435010958865460e+05 1.129800000000000000e+05 1.000000000000000000e+06
1.701254279852589243e+05 1.121730000000000000e+05 1.000000000000000000e+06
1.781706319545732404e+05 1.123880000000000000e+05 1.000000000000000000e+06
1.865962923181745864e+05 1.125630000000000000e+05 1.000000000000000000e+06
1.954204007974051347e+05 1.128550000000000000e+05 1.000000000000000000e+06
2.046617999391989724e+05 1.134690000000000000e+05 1.000000000000000000e+06
2.143402233514858817e+05 1.133950000000000000e+05 1.000000000000000000e+06
2.244763378413223836e+05 1.134980000000000000e+05 1.000000000000000000e+06
2.350917875457284390e+05 1.135570000000000000e+05 1.000000000000000000e+06
2.462092401494625374e+05 1.136060000000000000e+05 1.000000000000000000e+06
2.578524352884276304e+05 1.144210000000000000e+05 1.000000000000000000e+06
2.700462352420681855e+05 1.143480000000000000e+05 1.000000000000000000e+06
2.828166780230029253e+05 1.143060000000000000e+05 1.000000000000000000e+06
2.961910329772553523e+05 1.141200000000000000e+05 1.000000000000000000e+06
3.101978590138099971e+05 1.144250000000000000e+05 1.000000000000000000e+06
3.248670655878374819e+05 1.150650000000000000e+05 1.000000000000000000e+06
3.402299765678071417e+05 1.148150000000000000e+05 1.000000000000000000e+06
3.563193971228591399e+05 1.154580000000000000e+05 1.000000000000000000e+06
3.731696837732755812e+05 1.150310000000000000e+05 1.000000000000000000e+06
3.908168177536264411e+05 1.149220000000000000e+05 1.000000000000000000e+06
4.092984818452442414e+05 1.154190000000000000e+05 1.000000000000000000e+06
4.286541408420933876e+05 1.153840000000000000e+05 1.000000000000000000e+06
4.489251258218607400e+05 1.158150000000000000e+05 1.000000000000000000e+06
4.701547224022129667e+05 1.161800000000000000e+05 1.000000000000000000e+06
4.923882631706741522e+05 1.156460000000000000e+05 1.000000000000000000e+06
5.156732244854973978e+05 1.162840000000000000e+05 1.000000000000000000e+06
5.400593278542374028e+05 1.165400000000000000e+05 1.000000000000000000e+06
5.655986461065001786e+05 1.170830000000000000e+05 1.000000000000000000e+06
5.923457145875806455e+05 1.171520000000000000e+05 1.000000000000000000e+06
6.203576476104280446e+05 1.167900000000000000e+05 1.000000000000000000e+06
6.496942604146124795e+05 1.176170000000000000e+05 1.000000000000000000e+06
6.804181968927093549e+05 1.178910000000000000e+05 1.000000000000000000e+06
7.125950633568410994e+05 1.174620000000000000e+05 1.000000000000000000e+06
7.462935686310144374e+05 1.181210000000000000e+05 1.000000000000000000e+06
7.815856707684090361e+05 1.181360000000000000e+05 1.000000000000000000e+06
8.185467307069021044e+05 1.179140000000000000e+05 1.000000000000000000e+06
8.572556731909324881e+05 1.187030000000000000e+05 1.000000000000000000e+06
8.977951553033331875e+05 1.185140000000000000e+05 1.000000000000000000e+06
9.402517429670132697e+05 1.189020000000000000e+05 1.000000000000000000e+06
9.847160957933764439e+05 1.188760000000000000e+05 1.000000000000000000e+06
1.031283160672184778e+06 1.193740000000000000e+05 1.000000000000000000e+06
1.080052374516254058e+06 1.194170000000000000e+05 1.000000000000000000e+06
1.131127876593921334e+06 1.202160000000000000e+05 1.000000000000000000e+06
1.184618730902684852e+06 1.196640000000000000e+05 1.000000000000000000e+06
1.240639159058831865e+06 1.199680000000000000e+05 1.000000000000000000e+06
1.299308784200417111e+06 1.206370000000000000e+05 1.000000000000000000e+06
1.360752886424333090e+06 1.206540000000000000e+05 1.000000000000000000e+06
1.425102670302999206e+06 1.208090000000000000e+05 1.000000000000000000e+06
1.492495545051829191e+06 1.209100000000000000e+05 1.000000000000000000e+06
1.563075417945817346e+06 1.217810000000000000e+05 1.000000000000000000e+06
1.636993001611701911e+06 1.220580000000000000e+05 1.000000000000000000e+06
1.714406135851972038e+06 1.215240000000000000e+05 1.000000000000000000e+06
1.795480124687830452e+06 1.220640000000000000e+05 1.000000000000000000e+06
1.880388089340916602e+06 1.222660000000000000e+05 1.000000000000000000e+06
1.969311337907421868e+06 1.226320000000000000e+05 1.000000000000000000e+06
2.062439752514092717e+06 1.225290000000000000e+05 1.000000000000000000e+06
2.159972194782717153e+06 1.237050000000000000e+05 1.000000000000000000e+06
2.262116930469026323e+06 1.234850000000000000e+05 1.000000000000000000e+06
2.369092074182631914e+06 1.240590000000000000e+05 1.000000000000000000e+06
2.481126055137770250e+06 1.237650000000000000e+05 1.000000000000000000e+06
2.598458104929246940e+06 1.239540000000000000e+05 1.000000000000000000e+06
2.721338768375308719e+06 1.248660000000000000e+05 1.000000000000000000e+06
2.850030438518105075e+06 1.252270000000000000e+05 1.000000000000000000e+06
2.984807916924327612e+06 1.246620000000000000e+05 1.000000000000000000e+06
3.125959000482284464e+06 1.250680000000000000e+05 1.000000000000000000e+06
3.273785095948576927e+06 1.254260000000000000e+05 1.000000000000000000e+06
3.428601863556590397e+06 1.261900000000000000e+05 1.000000000000000000e+06
3.590739891061055008e+06 1.259370000000000000e+05 1.000000000000000000e+06
3.760545399658175651e+06 1.272390000000000000e+05 1.000000000000000000e+06
3.938380983288488816e+06 1.274320000000000000e+05 1.000000000000000000e+06
4.124626382901356556e+06 1.277100000000000000e+05 1.000000000000000000e+06
4.319679297334173694e+06 1.271650000000000000e+05 1.000000000000000000e+06
4.523956232538058423e+06 1.277120000000000000e+05 1.000000000000000000e+06
4.737893390963143669e+06 1.286660000000000000e+05 1.000000000000000000e+06
4.961947603002907708e+06 1.286590000000000000e+05 1.000000000000000000e+06
5.196597302486197092e+06 1.285910000000000000e+05 1.000000000000000000e+06
5.442343548300271854e+06 1.293180000000000000e+05 1.000000000000000000e+06
5.699711094326075166e+06 1.295360000000000000e+05 1.000000000000000000e+06
5.969249509970739484e+06 1.299680000000000000e+05 1.000000000000000000e+06
6.251534353689711541e+06 1.304540000000000000e+05 1.000000000000000000e+06
6.547168402004742995e+06 1.311180000000000000e+05 1.000000000000000000e+06
6.856782936641737819e+06 1.305930000000000000e+05 1.000000000000000000e+06
7.181039092537356541e+06 1.317820000000000000e+05 1.000000000000000000e+06
7.520629269592407160e+06 1.311140000000000000e+05 1.000000000000000000e+06
7.876278611187063158e+06 1.318410000000000000e+05 1.000000000000000000e+06
8.248746552614580840e+06 1.327680000000000000e+05 1.000000000000000000e+06
8.638828442740453407e+06 1.323850000000000000e+05 1.000000000000000000e+06
9.047357242349293083e+06 1.328890000000000000e+05 1.000000000000000000e+06
9.475205302806546912e+06 1.332240000000000000e+05 1.000000000000000000e+06
9.923286228832544759e+06 1.334640000000000000e+05 1.000000000000000000e+06
1.039255682936713099e+07 1.339320000000000000e+05 1.000000000000000000e+06
1.088401916069005430e+07 1.347450000000000000e+05 1.000000000000000000e+06
1.139872266616052575e+07 1.350920000000000000e+05 1.000000000000000000e+06
1.193776641714435816e+07 1.349260000000000000e+05 1.000000000000000000e+06
1.250230145991455950e+07 1.356870000000000000e+05 1.000000000000000000e+06
1.309353327353609540e+07 1.357820000000000000e+05 1.000000000000000000e+06
1.371272434398400784e+07 1.360600000000000000e+05 1.000000000000000000e+06
1.436119685999080166e+07 1.369190000000000000e+05 1.000000000000000000e+06
1.504033553638025187e+07 1.369080000000000000e+05 1.000000000000000000e+06
1.575159057091624476e+07 1.376360000000000000e+05 1.000000000000000000e+06
1.649648074098020606e+07 1.377910000000000000e+05 1.000000000000000000e+06
1.727659664669038355e+07 1.383580000000000000e+05 1.000000000000000000e+06
1.809360410738716647e+07 1.388780000000000000e+05 1.000000000000000000e+06
1.894924771873823553e+07 1.389650000000000000e+05 1.000000000000000000e+06
1.984535457805803046e+07 1.395740000000000000e+05 1.000000000000000000e+06
2.078383818579759449e+07 1.399750000000000000e+05 1.000000000000000000e+06
