#Energy: GeV, NMuons, Total Events
1.000000000000000000e+02 3.069900000000000000e+04 1.000000000000000000e+06
1.047289838236358577e+02 3.170300000000000000e+04 1.000000000000000000e+06
1.096816005273137904e+02 3.309500000000000000e+04 1.000000000000000000e+06
1.148684256737553540e+02 3.415000000000000000e+04 1.000000000000000000e+06
1.203005349423324191e+02 3.528800000000000000e+04 1.000000000000000000e+06
1.259895277795027226e+02 3.638300000000000000e+04 1.000000000000000000e+06
1.319475521676706080e+02 3.735900000000000000e+04 1.000000000000000000e+06
1.381873305653632258e+02 3.867600000000000000e+04 1.000000000000000000e+06
1.447221870741134353e+02 3.964300000000000000e+04 1.000000000000000000e+06
1.515660758900602900e+02 4.077500000000000000e+04 1.000000000000000000e+06
1.587336111010208697e+02 4.231300000000000000e+04 1.000000000000000000e+06
1.662400978926611970e+02 4.296100000000000000e+04 1.000000000000000000e+06
1.741015652304015475e+02 4.447900000000000000e+04 1.000000000000000000e+06
1.823348000868440408e+02 4.513600000000000000e+04 1.000000000000000000e+06
1.909573832878096766e+02 4.647500000000000000e+04 1.000000000000000000e+06
1.999877270535286868e+02 4.712900000000000000e+04 1.000000000000000000e+06
2.094451143151468671e+02 4.825500000000000000e+04 1.000000000000000000e+06
2.193497398905060152e+02 4.930500000000000000e+04 1.000000000000000000e+06
2.297227536071151235e+02 5.015300000000000000e+04 1.000000000000000000e+06
2.405863054644066779e+02 5.083700000000000000e+04 1.000000000000000000e+06
2.519635929317016121e+02 5.151700000000000000e+04 1.000000000000000000e+06
2.638789104828934455e+02 5.249900000000000000e+04 1.000000000000000000e+06
2.763577014736160322e+02 5.418400000000000000e+04 1.000000000000000000e+06
2.894266124716751847e+02 5.507500000000000000e+04 1.000000000000000000e+06
3.031135501567579240e+02 5.576200000000000000e+04 1.000000000000000000e+06
3.174477409109193218e+02 5.670800000000000000e+04 1.000000000000000000e+06
3.324597932270941669e+02 5.732700000000000000e+04 1.000000000000000000e+06
3.481817630688966574e+02 5.839000000000000000e+04 1.000000000000000000e+06
3.646472223212748531e+02 5.926600000000000000e+04 1.000000000000000000e+06
3.818913304781854094e+02 5.954400000000000000e+04 1.000000000000000000e+06
3.999509097203665533e+02 6.071900000000000000e+04 1.000000000000000000e+06
4.188645235435270706e+02 6.127800000000000000e+04 1.000000000000000000e+06
4.386725591048498814e+02 6.190100000000000000e+04 1.000000000000000000e+06
4.594173134636476448e+02 6.260600000000000000e+04 1.000000000000000000e+06
4.811430839003259621e+02 6.347200000000000000e+04 1.000000000000000000e+06
5.038962625065150291e+02 6.410600000000000000e+04 1.000000000000000000e+06
5.277254352483537332e+02 6.471800000000000000e+04 1.000000000000000000e+06
5.526814857144603366e+02 6.532100000000000000e+04 1.000000000000000000e+06
5.788177037701274230e+02 6.603700000000000000e+04 1.000000000000000000e+06
6.061898993497571837e+02 6.673900000000000000e+04 1.000000000000000000e+06
6.348565216305216836e+02 6.715200000000000000e+04 1.000000000000000000e+06
6.648787838417263174e+02 6.799000000000000000e+04 1.000000000000000000e+06
6.963207939763883587e+02 6.851800000000000000e+04 1.000000000000000000e+06
7.292496916841444090e+02 6.953800000000000000e+04 1.000000000000000000e+06
7.637357916378026630e+02 6.948900000000000000e+04 1.000000000000000000e+06
7.998527336796707914e+02 6.989400000000000000e+04 1.000000000000000000e+06
8.376776400682924759e+02 7.095000000000000000e+04 1.000000000000000000e+06
8.772912801613356351e+02 7.112000000000000000e+04 1.000000000000000000e+06
9.187782428863339419e+02 7.187000000000000000e+04 1.000000000000000000e+06
9.622271173675134150e+02 7.239100000000000000e+04 1.000000000000000000e+06
1.007730682094461713e+03 7.285500000000000000e+04 1.000000000000000000e+06
1.055386103036523082e+03 7.357500000000000000e+04 1.000000000000000000e+06
1.105295141126022145e+03 7.385100000000000000e+04 1.000000000000000000e+06
1.157564369553303550e+03 7.420500000000000000e+04 1.000000000000000000e+06
1.212305401337652711e+03 7.402600000000000000e+04 1.000000000000000000e+06
1.269635127659972795e+03 7.503800000000000000e+04 1.000000000000000000e+06
1.329675967466212569e+03 7.565800000000000000e+04 1.000000000000000000e+06
1.392556128874463411e+03 7.570500000000000000e+04 1.000000000000000000e+06
1.458409882943986304e+03 7.573900000000000000e+04 1.000000000000000000e+06
1.527377850390714002e+03 7.659700000000000000e+04 1.000000000000000000e+06
1.599607301861487940e+03 7.642400000000000000e+04 1.000000000000000000e+06
1.675252472408215453e+03 7.684700000000000000e+04 1.000000000000000000e+06
1.754474890833459767e+03 7.719200000000000000e+04 1.000000000000000000e+06
1.837443724610726804e+03 7.759300000000000000e+04 1.000000000000000000e+06
1.924336141115980126e+03 7.818400000000000000e+04 1.000000000000000000e+06
2.015337685941733071e+03 7.823300000000000000e+04 1.000000000000000000e+06
2.110642679101554677e+03 7.879100000000000000e+04 1.000000000000000000e+06
2.210454629971021404e+03 7.903600000000000000e+04 1.000000000000000000e+06
2.314986671851160736e+03 7.919100000000000000e+04 1.000000000000000000e+06
2.424462017082328202e+03 7.938000000000000000e+04 1.000000000000000000e+06
2.539114433680347247e+03 7.935300000000000000e+04 1.000000000000000000e+06
2.659188744512693575e+03 8.001800000000000000e+04 1.000000000000000000e+06
2.784941350080644042e+03 8.026800000000000000e+04 1.000000000000000000e+06
2.916640776023706621e+03 8.030800000000000000e+04 1.000000000000000000e+06
3.054568246515431838e+03 8.080900000000000000e+04 1.000000000000000000e+06
3.199018284775067059e+03 8.130200000000000000e+04 1.000000000000000000e+06
3.350299341977229687e+03 8.127700000000000000e+04 1.000000000000000000e+06
3.508734455902715126e+03 8.109600000000000000e+04 1.000000000000000000e+06
3.674661940736687939e+03 8.090700000000000000e+04 1.000000000000000000e+06
3.848436109487432986e+03 8.109900000000000000e+04 1.000000000000000000e+06
4.030428030568050417e+03 8.210300000000000000e+04 1.000000000000000000e+06
4.221026320156903239e+03 8.174000000000000000e+04 1.000000000000000000e+06
4.420637972028530385e+03 8.183200000000000000e+04 1.000000000000000000e+06
4.629689226627267999e+03 8.236000000000000000e+04 1.000000000000000000e+06
4.848626481239078203e+03 8.230400000000000000e+04 1.000000000000000000e+06
5.077917243205403793e+03 8.307900000000000000e+04 1.000000000000000000e+06
5.318051128214196979e+03 8.226500000000000000e+04 1.000000000000000000e+06
5.569540905800135988e+03 8.309600000000000000e+04 1.000000000000000000e+06
5.832923594286206026e+03 8.208600000000000000e+04 1.000000000000000000e+06
6.108761607505040047e+03 8.266700000000000000e+04 1.000000000000000000e+06
6.397643955748430017e+03 8.319100000000000000e+04 1.000000000000000000e+06
6.700187503509589988e+03 8.364000000000000000e+04 1.000000000000000000e+06
7.017038286703829726e+03 8.371100000000000000e+04 1.000000000000000000e+06
7.348872892180387680e+03 8.351600000000000000e+04 1.000000000000000000e+06
7.696399902471158384e+03 8.302900000000000000e+04 1.000000000000000000e+06
8.060361408861344898e+03 8.340200000000000000e+04 1.000000000000000000e+06
8.441534596012985276e+03 8.374400000000000000e+04 1.000000000000000000e+06
8.840733401525063528e+03 8.366900000000000000e+04 1.000000000000000000e+06
9.258810253973953877e+03 8.397700000000000000e+04 1.000000000000000000e+06
9.696657893145520575e+03 8.372500000000000000e+04 1.000000000000000000e+06
1.015521127634569166e+04 8.388200000000000000e+04 1.000000000000000000e+06
1.063544957486011117e+04 8.380700000000000000e+04 1.000000000000000000e+06
1.113839826482618264e+04 8.498800000000000000e+04 1.000000000000000000e+06
1.166513131698196230e+04 8.419000000000000000e+04 1.000000000000000000e+06
1.221677348996793080e+04 8.401100000000000000e+04 1.000000000000000000e+06
1.279450273207873397e+04 8.482000000000000000e+04 1.000000000000000000e+06
1.339955269659337137e+04 8.442600000000000000e+04 1.000000000000000000e+06
1.403321537605484627e+04 8.495500000000000000e+04 1.000000000000000000e+06
1.469684386112447464e+04 8.481000000000000000e+04 1.000000000000000000e+06
1.539185522990205391e+04 8.505100000000000000e+04 1.000000000000000000e+06
1.611973357388155455e+04 8.500000000000000000e+04 1.000000000000000000e+06
1.688203316700362848e+04 8.487800000000000000e+04 1.000000000000000000e+06
1.768038178457208778e+04 8.552800000000000000e+04 1.000000000000000000e+06
1.851648417912154036e+04 8.576800000000000000e+04 1.000000000000000000e+06
1.939212572065831046e+04 8.571500000000000000e+04 1.000000000000000000e+06
2.030917620904738942e+04 8.545900000000000000e+04 1.000000000000000000e+06
2.126959386668691877e+04 8.579100000000000000e+04 1.000000000000000000e+06
2.227542951999556317e+04 8.540500000000000000e+04 1.000000000000000000e+06
2.332883097864158481e+04 8.539000000000000000e+04 1.000000000000000000e+06
2.443204762186491644e+04 8.558800000000000000e+04 1.000000000000000000e+06
2.558743520168589021e+04 8.552000000000000000e+04 1.000000000000000000e+06
2.679746087325689587e+04 8.580300000000000000e+04 1.000000000000000000e+06
2.806470846309838817e+04 8.542200000000000000e+04 1.000000000000000000e+06
2.939188398646890346e+04 8.552400000000000000e+04 1.000000000000000000e+06
3.078182142565079994e+04 8.545100000000000000e+04 1.000000000000000000e+06
3.223748878149026859e+04 8.652200000000000000e+04 1.000000000000000000e+06
3.376199441111340275e+04 8.638100000000000000e+04 1.000000000000000000e+06
3.535859366535182926e+04 8.618300000000000000e+04 1.000000000000000000e+06
3.703069584005141223e+04 8.601400000000000000e+04 1.000000000000000000e+06
3.878187145610719745e+04 8.616100000000000000e+04 1.000000000000000000e+06
4.061585988376979367e+04 8.604300000000000000e+04 1.000000000000000000e+06
4.253657732750391733e+04 8.625900000000000000e+04 1.000000000000000000e+06
4.454812518844988517e+04 8.658400000000000000e+04 1.000000000000000000e+06
4.665479882234468096e+04 8.661100000000000000e+04 1.000000000000000000e+06
4.886109671160326252e+04 8.610200000000000000e+04 1.000000000000000000e+06
5.117173007114609936e+04 8.732200000000000000e+04 1.000000000000000000e+06
5.359163290848514589e+04 8.721100000000000000e+04 1.000000000000000000e+06
5.612597255954965658e+04 8.657700000000000000e+04 1.000000000000000000e+06
5.878016072274911858e+04 8.699900000000000000e+04 1.000000000000000000e+06
6.155986501483514439e+04 8.701800000000000000e+04 1.000000000000000000e+06
6.447102107323869859e+04 8.693100000000000000e+04 1.000000000000000000e+06
6.751984523072493903e+04 8.761400000000000000e+04 1.000000000000000000e+06
7.071284778942995763e+04 8.749700000000000000e+04 1.000000000000000000e+06
7.405684692262441968e+04 8.759700000000000000e+04 1.000000000000000000e+06
7.755898323389001598e+04 8.790400000000000000e+04 1.000000000000000000e+06
8.122673500479719951e+04 8.763900000000000000e+04 1.000000000000000000e+06
8.506793416364170844e+04 8.761400000000000000e+04 1.000000000000000000e+06
8.909078300934142317e+04 8.814700000000000000e+04 1.000000000000000000e+06
9.330387172620360798e+04 8.813600000000000000e+04 1.000000000000000000e+06
9.771619672696181806e+04 8.823100000000000000e+04 1.000000000000000000e+06
1.023371798632521241e+05 8.789900000000000000e+04 1.000000000000000000e+06
1.071766885445503431e+05 8.840900000000000000e+04 1.000000000000000000e+06
1.122450568085305858e+05 8.793500000000000000e+04 1.000000000000000000e+06
1.175531073878369934e+05 8.796800000000000000e+04 1.000000000000000000e+06
1.231121748203892057e+05 8.832900000000000000e+04 1.000000000000000000e+06
1.289341296525715734e+05 8.847400000000000000e+04 1.000000000000000000e+06
1.350314037869872118e+05 8.881900000000000000e+04 1.000000000000000000e+06
1.414170170289023954e+05 8.894000000000000000e+04 1.000000000000000000e+06
1.481046048880676972e+05 8.857100000000000000e+04 1.000000000000000000e+06
1.551084476952840632e+05 8.848700000000000000e+04 1.000000000000000000e+06
1.624435010958865460e+05 8.913100000000000000e+04 1.000000000000000000e+06
1.701254279852589243e+05 8.934500000000000000e+04 1.000000000000000000e+06
1.781706319545732404e+05 8.965800000000000000e+04 1.000000000000000000e+06
1.865962923181745864e+05 8.939500000000000000e+04 1.000000000000000000e+06
1.954204007974051347e+05 8.896100000000000000e+04 1.000000000000000000e+06
2.046617999391989724e+05 8.934300000000000000e+04 1.000000000000000000e+06
2.143402233514858817e+05 8.949500000000000000e+04 1.000000000000000000e+06
2.244763378413223836e+05 9.010900000000000000e+04 1.000000000000000000e+06
2.350917875457284390e+05 9.023900000000000000e+04 1.000000000000000000e+06
2.462092401494625374e+05 8.953900000000000000e+04 1.000000000000000000e+06
2.578524352884276304e+05 8.972300000000000000e+04 1.000000000000000000e+06
2.700462352420681855e+05 8.982300000000000000e+04 1.000000000000000000e+06
2.828166780230029253e+05 9.036100000000000000e+04 1.000000000000000000e+06
2.961910329772553523e+05 9.046400000000000000e+04 1.000000000000000000e+06
3.101978590138099971e+05 9.035900000000000000e+04 1.000000000000000000e+06
3.248670655878374819e+05 9.072500000000000000e+04 1.000000000000000000e+06
3.402299765678071417e+05 9.061800000000000000e+04 1.000000000000000000e+06
3.563193971228591399e+05 9.080300000000000000e+04 1.000000000000000000e+06
3.731696837732755812e+05 9.134500000000000000e+04 1.000000000000000000e+06
3.908168177536264411e+05 9.150900000000000000e+04 1.000000000000000000e+06
4.092984818452442414e+05 9.112000000000000000e+04 1.000000000000000000e+06
4.286541408420933876e+05 9.164000000000000000e+04 1.000000000000000000e+06
4.489251258218607400e+05 9.136100000000000000e+04 1.000000000000000000e+06
4.701547224022129667e+05 9.150700000000000000e+04 1.000000000000000000e+06
4.923882631706741522e+05 9.212000000000000000e+04 1.000000000000000000e+06
5.156732244854973978e+05 9.174100000000000000e+04 1.000000000000000000e+06
5.400593278542374028e+05 9.237200000000000000e+04 1.000000000000000000e+06
5.655986461065001786e+05 9.203400000000000000e+04 1.000000000000000000e+06
5.923457145875806455e+05 9.217900000000000000e+04 1.000000000000000000e+06
6.203576476104280446e+05 9.214500000000000000e+04 1.000000000000000000e+06
6.496942604146124795e+05 9.276000000000000000e+04 1.000000000000000000e+06
6.804181968927093549e+05 9.282400000000000000e+04 1.000000000000000000e+06
7.125950633568410994e+05 9.276200000000000000e+04 1.000000000000000000e+06
7.462935686310144374e+05 9.281700000000000000e+04 1.000000000000000000e+06
7.815856707684090361e+05 9.276900000000000000e+04 1.000000000000000000e+06
8.185467307069021044e+05 9.350300000000000000e+04 1.000000000000000000e+06
8.572556731909324881e+05 9.329400000000000000e+04 1.000000000000000000e+06
8.977951553033331875e+05 9.356400000000000000e+04 1.000000000000000000e+06
9.402517429670132697e+05 9.410200000000000000e+04 1.000000000000000000e+06
9.847160957933764439e+05 9.416700000000000000e+04 1.000000000000000000e+06
1.031283160672184778e+06 9.351700000000000000e+04 1.000000000000000000e+06
1.080052374516254058e+06 9.374100000000000000e+04 1.000000000000000000e+06
1.131127876593921334e+06 9.381400000000000000e+04 1.000000000000000000e+06
1.184618730902684852e+06 9.412300000000000000e+04 1.000000000000000000e+06
1.240639159058831865e+06 9.431300000000000000e+04 1.000000000000000000e+06
1.299308784200417111e+06 9.455100000000000000e+04 1.000000000000000000e+06
1.360752886424333090e+06 9.454100000000000000e+04 1.000000000000000000e+06
1.425102670302999206e+06 9.481900000000000000e+04 1.000000000000000000e+06
1.492495545051829191e+06 9.452100000000000000e+04 1.000000000000000000e+06
1.563075417945817346e+06 9.541000000000000000e+04 1.000000000000000000e+06
1.636993001611701911e+06 9.572100000000000000e+04 1.000000000000000000e+06
1.714406135851972038e+06 9.521200000000000000e+04 1.000000000000000000e+06
1.795480124687830452e+06 9.559000000000000000e+04 1.000000000000000000e+06
1.880388089340916602e+06 9.577700000000000000e+04 1.000000000000000000e+06
1.969311337907421868e+06 9.551800000000000000e+04 1.000000000000000000e+06
2.062439752514092717e+06 9.636400000000000000e+04 1.000000000000000000e+06
2.159972194782717153e+06 9.591200000000000000e+04 1.000000000000000000e+06
2.262116930469026323e+06 9.659900000000000000e+04 1.000000000000000000e+06
2.369092074182631914e+06 9.636000000000000000e+04 1.000000000000000000e+06
2.481126055137770250e+06 9.668900000000000000e+04 1.000000000000000000e+06
2.598458104929246940e+06 9.693900000000000000e+04 1.000000000000000000e+06
2.721338768375308719e+06 9.713900000000000000e+04 1.000000000000000000e+06
2.850030438518105075e+06 9.731500000000000000e+04 1.000000000000000000e+06
2.984807916924327612e+06 9.723300000000000000e+04 1.000000000000000000e+06
3.125959000482284464e+06 9.772900000000000000e+04 1.000000000000000000e+06
3.273785095948576927e+06 9.814500000000000000e+04 1.000000000000000000e+06
3.428601863556590397e+06 9.842000000000000000e+04 1.000000000000000000e+06
3.590739891061055008e+06 9.832700000000000000e+04 1.000000000000000000e+06
3.760545399658175651e+06 9.828800000000000000e+04 1.000000000000000000e+06
3.938380983288488816e+06 9.880300000000000000e+04 1.000000000000000000e+06
4.124626382901356556e+06 9.905100000000000000e+04 1.000000000000000000e+06
4.319679297334173694e+06 9.893300000000000000e+04 1.000000000000000000e+06
4.523956232538058423e+06 9.887200000000000000e+04 1.000000000000000000e+06
4.737893390963143669e+06 9.902900000000000000e+04 1.000000000000000000e+06
4.961947603002907708e+06 9.925400000000000000e+04 1.000000000000000000e+06
5.196597302486197092e+06 9.940300000000000000e+04 1.000000000000000000e+06
5.442343548300271854e+06 1.001620000000000000e+05 1.000000000000000000e+06
5.699711094326075166e+06 1.004970000000000000e+05 1.000000000000000000e+06
5.969249509970739484e+06 1.003230000000000000e+05 1.000000000000000000e+06
6.251534353689711541e+06 1.006940000000000000e+05 1.000000000000000000e+06
6.547168402004742995e+06 1.007860000000000000e+05 1.000000000000000000e+06
6.856782936641737819e+06 1.009970000000000000e+05 1.000000000000000000e+06
7.181039092537356541e+06 1.003760000000000000e+05 1.000000000000000000e+06
7.520629269592407160e+06 1.008490000000000000e+05 1.000000000000000000e+06
7.876278611187063158e+06 1.013300000000000000e+05 1.000000000000000000e+06
8.248746552614580840e+06 1.015130000000000000e+05 1.000000000000000000e+06
8.638828442740453407e+06 1.016080000000000000e+05 1.000000000000000000e+06
9.047357242349293083e+06 1.025270000000000000e+05 1.000000000000000000e+06
9.475205302806546912e+06 1.021430000000000000e+05 1.000000000000000000e+06
9.923286228832544759e+06 1.024910000000000000e+05 1.000000000000000000e+06
1.039255682936713099e+07 1.025840000000000000e+05 1.000000000000000000e+06
1.088401916069005430e+07 1.034900000000000000e+05 1.000000000000000000e+06
1.139872266616052575e+07 1.032110000000000000e+05 1.000000000000000000e+06
1.193776641714435816e+07 1.033260000000000000e+05 1.000000000000000000e+06
1.250230145991455950e+07 1.037700000000000000e+05 1.000000000000000000e+06
1.309353327353609540e+07 1.039140000000000000e+05 1.000000000000000000e+06
1.371272434398400784e+07 1.037180000000000000e+05 1.000000000000000000e+06
1.436119685999080166e+07 1.038880000000000000e+05 1.000000000000000000e+06
1.504033553638025187e+07 1.044410000000000000e+05 1.000000000000000000e+06
1.575159057091624476e+07 1.043290000000000000e+05 1.000000000000000000e+06
1.649648074098020606e+07 1.041690000000000000e+05 1.000000000000000000e+06
1.727659664669038355e+07 1.052620000000000000e+05 1.000000000000000000e+06
1.809360410738716647e+07 1.047540000000000000e+05 1.000000000000000000e+06
1.894924771873823553e+07 1.051680000000000000e+05 1.000000000000000000e+06
1.984535457805803046e+07 1.050470000000000000e+05 1.000000000000000000e+06
2.078383818579759449e+07 1.055560000000000000e+05 1.000000000000000000e+06
