#Energy: GeV, NMuons, Total Events
1.000000000000000000e+02 2.329100000000000000e+04 1.000000000000000000e+06
1.047289838236358577e+02 2.392900000000000000e+04 1.000000000000000000e+06
1.096816005273137904e+02 2.510900000000000000e+04 1.000000000000000000e+06
1.148684256737553540e+02 2.563500000000000000e+04 1.000000000000000000e+06
1.203005349423324191e+02 2.686600000000000000e+04 1.000000000000000000e+06
1.259895277795027226e+02 2.759100000000000000e+04 1.000000000000000000e+06
1.319475521676706080e+02 2.818200000000000000e+04 1.000000000000000000e+06
1.381873305653632258e+02 2.918100000000000000e+04 1.000000000000000000e+06
1.447221870741134353e+02 3.012300000000000000e+04 1.000000000000000000e+06
1.515660758900602900e+02 3.069700000000000000e+04 1.000000000000000000e+06
1.587336111010208697e+02 3.154700000000000000e+04 1.000000000000000000e+06
1.662400978926611970e+02 3.225100000000000000e+04 1.000000000000000000e+06
1.741015652304015475e+02 3.284900000000000000e+04 1.000000000000000000e+06
1.823348000868440408e+02 3.345400000000000000e+04 1.000000000000000000e+06
1.909573832878096766e+02 3.458900000000000000e+04 1.000000000000000000e+06
1.999877270535286868e+02 3.533100000000000000e+04 1.000000000000000000e+06
2.094451143151468671e+02 3.560900000000000000e+04 1.000000000000000000e+06
2.193497398905060152e+02 3.629400000000000000e+04 1.000000000000000000e+06
2.297227536071151235e+02 3.714000000000000000e+04 1.000000000000000000e+06
2.405863054644066779e+02 3.782700000000000000e+04 1.000000000000000000e+06
2.519635929317016121e+02 3.862700000000000000e+04 1.000000000000000000e+06
2.638789104828934455e+02 3.890000000000000000e+04 1.000000000000000000e+06
2.763577014736160322e+02 3.999200000000000000e+04 1.000000000000000000e+06
2.894266124716751847e+02 4.033000000000000000e+04 1.000000000000000000e+06
3.031135501567579240e+02 4.090900000000000000e+04 1.000000000000000000e+06
3.174477409109193218e+02 4.130500000000000000e+04 1.000000000000000000e+06
3.324597932270941669e+02 4.192500000000000000e+04 1.000000000000000000e+06
3.481817630688966574e+02 4.251400000000000000e+04 1.000000000000000000e+06
3.646472223212748531e+02 4.283800000000000000e+04 1.000000000000000000e+06
3.818913304781854094e+02 4.348500000000000000e+04 1.000000000000000000e+06
3.999509097203665533e+02 4.406800000000000000e+04 1.000000000000000000e+06
4.188645235435270706e+02 4.430600000000000000e+04 1.000000000000000000e+06
4.386725591048498814e+02 4.447000000000000000e+04 1.000000000000000000e+06
4.594173134636476448e+02 4.538500000000000000e+04 1.000000000000000000e+06
4.811430839003259621e+02 4.610700000000000000e+04 1.000000000000000000e+06
5.038962625065150291e+02 4.646000000000000000e+04 1.000000000000000000e+06
5.277254352483537332e+02 4.654900000000000000e+04 1.000000000000000000e+06
5.526814857144603366e+02 4.742500000000000000e+04 1.000000000000000000e+06
5.788177037701274230e+02 4.769200000000000000e+04 1.000000000000000000e+06
6.061898993497571837e+02 4.811500000000000000e+04 1.000000000000000000e+06
6.348565216305216836e+02 4.868500000000000000e+04 1.000000000000000000e+06
6.648787838417263174e+02 4.867500000000000000e+04 1.000000000000000000e+06
6.963207939763883587e+02 4.873700000000000000e+04 1.000000000000000000e+06
7.292496916841444090e+02 4.891900000000000000e+04 1.000000000000000000e+06
7.637357916378026630e+02 4.964400000000000000e+04 1.000000000000000000e+06
7.998527336796707914e+02 5.073000000000000000e+04 1.000000000000000000e+06
8.376776400682924759e+02 5.033600000000000000e+04 1.000000000000000000e+06
8.772912801613356351e+02 5.050300000000000000e+04 1.000000000000000000e+06
9.187782428863339419e+02 5.074100000000000000e+04 1.000000000000000000e+06
9.622271173675134150e+02 5.114600000000000000e+04 1.000000000000000000e+06
1.007730682094461713e+03 5.114200000000000000e+04 1.000000000000000000e+06
1.055386103036523082e+03 5.185700000000000000e+04 1.000000000000000000e+06
1.105295141126022145e+03 5.234100000000000000e+04 1.000000000000000000e+06
1.157564369553303550e+03 5.258900000000000000e+04 1.000000000000000000e+06
1.212305401337652711e+03 5.268900000000000000e+04 1.000000000000000000e+06
1.269635127659972795e+03 5.264900000000000000e+04 1.000000000000000000e+06
1.329675967466212569e+03 5.304300000000000000e+04 1.000000000000000000e+06
1.392556128874463411e+03 5.343600000000000000e+04 1.000000000000000000e+06
1.458409882943986304e+03 5.378700000000000000e+04 1.000000000000000000e+06
1.527377850390714002e+03 5.394100000000000000e+04 1.000000000000000000e+06
1.599607301861487940e+03 5.385000000000000000e+04 1.000000000000000000e+06
1.675252472408215453e+03 5.409300000000000000e+04 1.000000000000000000e+06
1.754474890833459767e+03 5.437400000000000000e+04 1.000000000000000000e+06
1.837443724610726804e+03 5.449000000000000000e+04 1.000000000000000000e+06
1.924336141115980126e+03 5.436500000000000000e+04 1.000000000000000000e+06
2.015337685941733071e+03 5.506800000000000000e+04 1.000000000000000000e+06
2.110642679101554677e+03 5.512500000000000000e+04 1.000000000000000000e+06
2.210454629971021404e+03 5.501300000000000000e+04 1.000000000000000000e+06
2.314986671851160736e+03 5.557800000000000000e+04 1.000000000000000000e+06
2.424462017082328202e+03 5.541600000000000000e+04 1.000000000000000000e+06
2.539114433680347247e+03 5.567600000000000000e+04 1.000000000000000000e+06
2.659188744512693575e+03 5.542300000000000000e+04 1.000000000000000000e+06
2.784941350080644042e+03 5.605300000000000000e+04 1.000000000000000000e+06
2.916640776023706621e+03 5.597300000000000000e+04 1.000000000000000000e+06
3.054568246515431838e+03 5.585000000000000000e+04 1.000000000000000000e+06
3.199018284775067059e+03 5.645100000000000000e+04 1.000000000000000000e+06
3.350299341977229687e+03 5.679500000000000000e+04 1.000000000000000000e+06
3.508734455902715126e+03 5.699400000000000000e+04 1.000000000000000000e+06
3.674661940736687939e+03 5.655700000000000000e+04 1.000000000000000000e+06
3.848436109487432986e+03 5.670500000000000000e+04 1.000000000000000000e+06
4.030428030568050417e+03 5.676800000000000000e+04 1.000000000000000000e+06
4.221026320156903239e+03 5.687100000000000000e+04 1.000000000000000000e+06
4.420637972028530385e+03 5.751900000000000000e+04 1.000000000000000000e+06
4.629689226627267999e+03 5.708100000000000000e+04 1.000000000000000000e+06
4.848626481239078203e+03 5.732600000000000000e+04 1.000000000000000000e+06
5.077917243205403793e+03 5.779700000000000000e+04 1.000000000000000000e+06
5.318051128214196979e+03 5.739400000000000000e+04 1.000000000000000000e+06
5.569540905800135988e+03 5.722700000000000000e+04 1.000000000000000000e+06
5.832923594286206026e+03 5.788700000000000000e+04 1.000000000000000000e+06
6.108761607505040047e+03 5.810900000000000000e+04 1.000000000000000000e+06
6.397643955748430017e+03 5.771300000000000000e+04 1.000000000000000000e+06
6.700187503509589988e+03 5.775100000000000000e+04 1.000000000000000000e+06
7.017038286703829726e+03 5.789500000000000000e+04 1.000000000000000000e+06
7.348872892180387680e+03 5.803100000000000000e+04 1.000000000000000000e+06
7.696399902471158384e+03 5.807300000000000000e+04 1.000000000000000000e+06
8.060361408861344898e+03 5.856200000000000000e+04 1.000000000000000000e+06
8.441534596012985276e+03 5.822000000000000000e+04 1.000000000000000000e+06
8.840733401525063528e+03 5.841200000000000000e+04 1.000000000000000000e+06
9.258810253973953877e+03 5.907000000000000000e+04 1.000000000000000000e+06
9.696657893145520575e+03 5.841000000000000000e+04 1.000000000000000000e+06
1.015521127634569166e+04 5.839400000000000000e+04 1.000000000000000000e+06
1.063544957486011117e+04 5.857600000000000000e+04 1.000000000000000000e+06
1.113839826482618264e+04 5.886700000000000000e+04 1.000000000000000000e+06
1.166513131698196230e+04 5.946400000000000000e+04 1.000000000000000000e+06
1.221677348996793080e+04 5.885600000000000000e+04 1.000000000000000000e+06
1.279450273207873397e+04 5.888100000000000000e+04 1.000000000000000000e+06
1.339955269659337137e+04 5.936600000000000000e+04 1.000000000000000000e+06
1.403321537605484627e+04 5.931400000000000000e+04 1.000000000000000000e+06
1.469684386112447464e+04 5.944400000000000000e+04 1.000000000000000000e+06
1.539185522990205391e+04 5.930700000000000000e+04 1.000000000000000000e+06
1.611973357388155455e+04 5.930600000000000000e+04 1.000000000000000000e+06
1.688203316700362848e+04 5.894300000000000000e+04 1.000000000000000000e+06
1.768038178457208778e+04 5.989700000000000000e+04 1.000000000000000000e+06
1.851648417912154036e+04 5.966500000000000000e+04 1.000000000000000000e+06
1.939212572065831046e+04 5.998200000000000000e+04 1.000000000000000000e+06
2.030917620904738942e+04 5.987500000000000000e+04 1.000000000000000000e+06
2.126959386668691877e+04 5.938700000000000000e+04 1.000000000000000000e+06
2.227542951999556317e+04 6.008800000000000000e+04 1.000000000000000000e+06
2.332883097864158481e+04 5.955500000000000000e+04 1.000000000000000000e+06
2.443204762186491644e+04 5.997700000000000000e+04 1.000000000000000000e+06
2.558743520168589021e+04 6.065800000000000000e+04 1.000000000000000000e+06
2.679746087325689587e+04 6.016200000000000000e+04 1.000000000000000000e+06
2.806470846309838817e+04 6.043600000000000000e+04 1.000000000000000000e+06
2.939188398646890346e+04 6.099900000000000000e+04 1.000000000000000000e+06
3.078182142565079994e+04 6.058300000000000000e+04 1.000000000000000000e+06
3.223748878149026859e+04 6.088900000000000000e+04 1.000000000000000000e+06
3.376199441111340275e+04 6.026800000000000000e+04 1.000000000000000000e+06
3.535859366535182926e+04 6.042600000000000000e+04 1.000000000000000000e+06
3.703069584005141223e+04 6.097900000000000000e+04 1.000000000000000000e+06
3.878187145610719745e+04 6.062100000000000000e+04 1.000000000000000000e+06
4.061585988376979367e+04 6.095700000000000000e+04 1.000000000000000000e+06
4.253657732750391733e+04 6.141200000000000000e+04 1.000000000000000000e+06
4.454812518844988517e+04 6.124600000000000000e+04 1.000000000000000000e+06
4.665479882234468096e+04 6.124200000000000000e+04 1.000000000000000000e+06
4.886109671160326252e+04 6.151900000000000000e+04 1.000000000000000000e+06
5.117173007114609936e+04 6.158700000000000000e+04 1.000000000000000000e+06
5.359163290848514589e+04 6.109100000000000000e+04 1.000000000000000000e+06
5.612597255954965658e+04 6.135300000000000000e+04 1.000000000000000000e+06
5.878016072274911858e+04 6.144600000000000000e+04 1.000000000000000000e+06
6.155986501483514439e+04 6.213600000000000000e+04 1.000000000000000000e+06
6.447102107323869859e+04 6.186900000000000000e+04 1.000000000000000000e+06
6.751984523072493903e+04 6.211900000000000000e+04 1.000000000000000000e+06
7.071284778942995763e+04 6.219400000000000000e+04 1.000000000000000000e+06
7.405684692262441968e+04 6.211400000000000000e+04 1.000000000000000000e+06
7.755898323389001598e+04 6.218500000000000000e+04 1.000000000000000000e+06
8.122673500479719951e+04 6.234200000000000000e+04 1.000000000000000000e+06
8.506793416364170844e+04 6.262300000000000000e+04 1.000000000000000000e+06
8.909078300934142317e+04 6.259600000000000000e+04 1.000000000000000000e+06
9.330387172620360798e+04 6.243100000000000000e+04 1.000000000000000000e+06
9.771619672696181806e+04 6.283800000000000000e+04 1.000000000000000000e+06
1.023371798632521241e+05 6.328900000000000000e+04 1.000000000000000000e+06
1.071766885445503431e+05 6.324400000000000000e+04 1.000000000000000000e+06
1.122450568085305858e+05 6.304300000000000000e+04 1.000000000000000000e+06
1.175531073878369934e+05 6.331100000000000000e+04 1.000000000000000000e+06
1.231121748203892057e+05 6.360600000000000000e+04 1.000000000000000000e+06
1.289341296525715734e+05 6.363100000000000000e+04 1.000000000000000000e+06
1.350314037869872118e+05 6.409100000000000000e+04 1.000000000000000000e+06
1.414170170289023954e+05 6.416900000000000000e+04 1.000000000000000000e+06
1.481046048880676972e+05 6.408100000000000000e+04 1.000000000000000000e+06
1.551084476952840632e+05 6.420200000000000000e+04 1.000000000000000000e+06
1.624435010958865460e+05 6.416000000000000000e+04 1.000000000000000000e+06
1.701254279852589243e+05 6.443600000000000000e+04 1.000000000000000000e+06
1.781706319545732404e+05 6.502400000000000000e+04 1.000000000000000000e+06
1.865962923181745864e+05 6.453000000000000000e+04 1.000000000000000000e+06
1.954204007974051347e+05 6.484600000000000000e+04 1.000000000000000000e+06
2.046617999391989724e+05 6.487400000000000000e+04 1.000000000000000000e+06
2.143402233514858817e+05 6.556300000000000000e+04 1.000000000000000000e+06
2.244763378413223836e+05 6.531100000000000000e+04 1.000000000000000000e+06
2.350917875457284390e+05 6.530300000000000000e+04 1.000000000000000000e+06
2.462092401494625374e+05 6.550600000000000000e+04 1.000000000000000000e+06
2.578524352884276304e+05 6.560200000000000000e+04 1.000000000000000000e+06
2.700462352420681855e+05 6.592800000000000000e+04 1.000000000000000000e+06
2.828166780230029253e+05 6.561000000000000000e+04 1.000000000000000000e+06
2.961910329772553523e+05 6.601100000000000000e+04 1.000000000000000000e+06
3.101978590138099971e+05 6.634400000000000000e+04 1.000000000000000000e+06
3.248670655878374819e+05 6.675300000000000000e+04 1.000000000000000000e+06
3.402299765678071417e+05 6.682700000000000000e+04 1.000000000000000000e+06
3.563193971228591399e+05 6.621700000000000000e+04 1.000000000000000000e+06
3.731696837732755812e+05 6.685400000000000000e+04 1.000000000000000000e+06
3.908168177536264411e+05 6.717700000000000000e+04 1.000000000000000000e+06
4.092984818452442414e+05 6.724700000000000000e+04 1.000000000000000000e+06
4.286541408420933876e+05 6.734300000000000000e+04 1.000000000000000000e+06
4.489251258218607400e+05 6.776900000000000000e+04 1.000000000000000000e+06
4.701547224022129667e+05 6.803500000000000000e+04 1.000000000000000000e+06
4.923882631706741522e+05 6.804800000000000000e+04 1.000000000000000000e+06
5.156732244854973978e+05 6.799100000000000000e+04 1.000000000000000000e+06
5.400593278542374028e+05 6.829800000000000000e+04 1.000000000000000000e+06
5.655986461065001786e+05 6.841100000000000000e+04 1.000000000000000000e+06
5.923457145875806455e+05 6.873900000000000000e+04 1.000000000000000000e+06
6.203576476104280446e+05 6.915200000000000000e+04 1.000000000000000000e+06
6.496942604146124795e+05 6.950500000000000000e+04 1.000000000000000000e+06
6.804181968927093549e+05 6.947600000000000000e+04 1.000000000000000000e+06
7.125950633568410994e+05 6.936100000000000000e+04 1.000000000000000000e+06
7.462935686310144374e+05 7.023100000000000000e+04 1.000000000000000000e+06
7.815856707684090361e+05 7.005900000000000000e+04 1.000000000000000000e+06
8.185467307069021044e+05 7.029800000000000000e+04 1.000000000000000000e+06
8.572556731909324881e+05 7.056000000000000000e+04 1.000000000000000000e+06
8.977951553033331875e+05 7.029100000000000000e+04 1.000000000000000000e+06
9.402517429670132697e+05 7.083700000000000000e+04 1.000000000000000000e+06
9.847160957933764439e+05 7.110300000000000000e+04 1.000000000000000000e+06
1.031283160672184778e+06 7.095500000000000000e+04 1.000000000000000000e+06
1.080052374516254058e+06 7.197400000000000000e+04 1.000000000000000000e+06
1.131127876593921334e+06 7.210000000000000000e+04 1.000000000000000000e+06
1.184618730902684852e+06 7.249400000000000000e+04 1.000000000000000000e+06
1.240639159058831865e+06 7.194900000000000000e+04 1.000000000000000000e+06
1.299308784200417111e+06 7.272800000000000000e+04 1.000000000000000000e+06
1.360752886424333090e+06 7.280500000000000000e+04 1.000000000000000000e+06
1.425102670302999206e+06 7.251600000000000000e+04 1.000000000000000000e+06
1.492495545051829191e+06 7.351800000000000000e+04 1.000000000000000000e+06
1.563075417945817346e+06 7.300500000000000000e+04 1.000000000000000000e+06
1.636993001611701911e+06 7.427000000000000000e+04 1.000000000000000000e+06
1.714406135851972038e+06 7.395400000000000000e+04 1.000000000000000000e+06
1.795480124687830452e+06 7.412400000000000000e+04 1.000000000000000000e+06
1.880388089340916602e+06 7.440500000000000000e+04 1.000000000000000000e+06
1.969311337907421868e+06 7.458200000000000000e+04 1.000000000000000000e+06
2.062439752514092717e+06 7.483000000000000000e+04 1.000000000000000000e+06
2.159972194782717153e+06 7.572600000000000000e+04 1.000000000000000000e+06
2.262116930469026323e+06 7.547500000000000000e+04 1.000000000000000000e+06
2.369092074182631914e+06 7.626500000000000000e+04 1.000000000000000000e+06
2.481126055137770250e+06 7.657400000000000000e+04 1.000000000000000000e+06
2.598458104929246940e+06 7.654300000000000000e+04 1.000000000000000000e+06
2.721338768375308719e+06 7.683700000000000000e+04 1.000000000000000000e+06
2.850030438518105075e+06 7.737500000000000000e+04 1.000000000000000000e+06
2.984807916924327612e+06 7.728500000000000000e+04 1.000000000000000000e+06
3.125959000482284464e+06 7.726200000000000000e+04 1.000000000000000000e+06
3.273785095948576927e+06 7.804600000000000000e+04 1.000000000000000000e+06
3.428601863556590397e+06 7.804800000000000000e+04 1.000000000000000000e+06
3.590739891061055008e+06 7.843200000000000000e+04 1.000000000000000000e+06
3.760545399658175651e+06 7.909200000000000000e+04 1.000000000000000000e+06
3.938380983288488816e+06 7.878100000000000000e+04 1.000000000000000000e+06
4.124626382901356556e+06 7.967400000000000000e+04 1.000000000000000000e+06
4.319679297334173694e+06 7.985600000000000000e+04 1.000000000000000000e+06
4.523956232538058423e+06 8.000100000000000000e+04 1.000000000000000000e+06
4.737893390963143669e+06 8.094300000000000000e+04 1.000000000000000000e+06
4.961947603002907708e+06 8.027800000000000000e+04 1.000000000000000000e+06
5.196597302486197092e+06 8.161000000000000000e+04 1.000000000000000000e+06
5.442343548300271854e+06 8.139000000000000000e+04 1.000000000000000000e+06
5.699711094326075166e+06 8.163800000000000000e+04 1.000000000000000000e+06
5.969249509970739484e+06 8.239600000000000000e+04 1.000000000000000000e+06
6.251534353689711541e+06 8.237800000000000000e+04 1.000000000000000000e+06
6.547168402004742995e+06 8.237300000000000000e+04 1.000000000000000000e+06
6.856782936641737819e+06 8.361800000000000000e+04 1.000000000000000000e+06
7.181039092537356541e+06 8.343500000000000000e+04 1.000000000000000000e+06
7.520629269592407160e+06 8.333200000000000000e+04 1.000000000000000000e+06
7.876278611187063158e+06 8.425500000000000000e+04 1.000000000000000000e+06
8.248746552614580840e+06 8.465300000000000000e+04 1.000000000000000000e+06
8.638828442740453407e+06 8.519100000000000000e+04 1.000000000000000000e+06
9.047357242349293083e+06 8.573800000000000000e+04 1.000000000000000000e+06
9.475205302806546912e+06 8.591700000000000000e+04 1.000000000000000000e+06
9.923286228832544759e+06 8.568400000000000000e+04 1.000000000000000000e+06
1.039255682936713099e+07 8.654500000000000000e+04 1.000000000000000000e+06
1.088401916069005430e+07 8.681800000000000000e+04 1.000000000000000000e+06
1.139872266616052575e+07 8.734300000000000000e+04 1.000000000000000000e+06
1.193776641714435816e+07 8.762400000000000000e+04 1.000000000000000000e+06
1.250230145991455950e+07 8.759600000000000000e+04 1.000000000000000000e+06
1.309353327353609540e+07 8.775200000000000000e+04 1.000000000000000000e+06
1.371272434398400784e+07 8.850700000000000000e+04 1.000000000000000000e+06
1.436119685999080166e+07 8.926800000000000000e+04 1.000000000000000000e+06
1.504033553638025187e+07 8.953800000000000000e+04 1.000000000000000000e+06
1.575159057091624476e+07 8.984000000000000000e+04 1.000000000000000000e+06
1.649648074098020606e+07 9.012800000000000000e+04 1.000000000000000000e+06
1.727659664669038355e+07 9.099000000000000000e+04 1.000000000000000000e+06
1.809360410738716647e+07 9.133200000000000000e+04 1.000000000000000000e+06
1.894924771873823553e+07 9.136700000000000000e+04 1.000000000000000000e+06
1.984535457805803046e+07 9.178100000000000000e+04 1.000000000000000000e+06
2.078383818579759449e+07 9.284200000000000000e+04 1.000000000000000000e+06
