#Energy: GeV, NMuons, Total Events
1.000000000000000000e+02 3.844900000000000000e+04 1.000000000000000000e+06
1.047289838236358577e+02 3.918000000000000000e+04 1.000000000000000000e+06
1.096816005273137904e+02 4.067500000000000000e+04 1.000000000000000000e+06
1.148684256737553540e+02 4.127200000000000000e+04 1.000000000000000000e+06
1.203005349423324191e+02 4.249200000000000000e+04 1.000000000000000000e+06
1.259895277795027226e+02 4.320300000000000000e+04 1.000000000000000000e+06
1.319475521676706080e+02 4.397200000000000000e+04 1.000000000000000000e+06
1.381873305653632258e+02 4.461900000000000000e+04 1.000000000000000000e+06
1.447221870741134353e+02 4.575600000000000000e+04 1.000000000000000000e+06
1.515660758900602900e+02 4.695500000000000000e+04 1.000000000000000000e+06
1.587336111010208697e+02 4.737200000000000000e+04 1.000000000000000000e+06
1.662400978926611970e+02 4.812100000000000000e+04 1.000000000000000000e+06
1.741015652304015475e+02 4.893500000000000000e+04 1.000000000000000000e+06
1.823348000868440408e+02 4.978100000000000000e+04 1.000000000000000000e+06
1.909573832878096766e+02 5.042500000000000000e+04 1.000000000000000000e+06
1.999877270535286868e+02 5.104700000000000000e+04 1.000000000000000000e+06
2.094451143151468671e+02 5.240800000000000000e+04 1.000000000000000000e+06
2.193497398905060152e+02 5.275500000000000000e+04 1.000000000000000000e+06
2.297227536071151235e+02 5.324400000000000000e+04 1.000000000000000000e+06
2.405863054644066779e+02 5.378700000000000000e+04 1.000000000000000000e+06
2.519635929317016121e+02 5.489500000000000000e+04 1.000000000000000000e+06
2.638789104828934455e+02 5.544400000000000000e+04 1.000000000000000000e+06
2.763577014736160322e+02 5.572400000000000000e+04 1.000000000000000000e+06
2.894266124716751847e+02 5.652200000000000000e+04 1.000000000000000000e+06
3.031135501567579240e+02 5.739900000000000000e+04 1.000000000000000000e+06
3.174477409109193218e+02 5.803100000000000000e+04 1.000000000000000000e+06
3.324597932270941669e+02 5.856300000000000000e+04 1.000000000000000000e+06
3.481817630688966574e+02 5.858800000000000000e+04 1.000000000000000000e+06
3.646472223212748531e+02 5.931900000000000000e+04 1.000000000000000000e+06
3.818913304781854094e+02 6.017300000000000000e+04 1.000000000000000000e+06
3.999509097203665533e+02 6.001100000000000000e+04 1.000000000000000000e+06
4.188645235435270706e+02 6.102300000000000000e+04 1.000000000000000000e+06
4.386725591048498814e+02 6.168000000000000000e+04 1.000000000000000000e+06
4.594173134636476448e+02 6.153700000000000000e+04 1.000000000000000000e+06
4.811430839003259621e+02 6.226100000000000000e+04 1.000000000000000000e+06
5.038962625065150291e+02 6.263900000000000000e+04 1.000000000000000000e+06
5.277254352483537332e+02 6.269600000000000000e+04 1.000000000000000000e+06
5.526814857144603366e+02 6.372400000000000000e+04 1.000000000000000000e+06
5.788177037701274230e+02 6.349400000000000000e+04 1.000000000000000000e+06
6.061898993497571837e+02 6.378100000000000000e+04 1.000000000000000000e+06
6.348565216305216836e+02 6.497200000000000000e+04 1.000000000000000000e+06
6.648787838417263174e+02 6.461500000000000000e+04 1.000000000000000000e+06
6.963207939763883587e+02 6.547900000000000000e+04 1.000000000000000000e+06
7.292496916841444090e+02 6.554300000000000000e+04 1.000000000000000000e+06
7.637357916378026630e+02 6.619100000000000000e+04 1.000000000000000000e+06
7.998527336796707914e+02 6.588500000000000000e+04 1.000000000000000000e+06
8.376776400682924759e+02 6.700900000000000000e+04 1.000000000000000000e+06
8.772912801613356351e+02 6.698900000000000000e+04 1.000000000000000000e+06
9.187782428863339419e+02 6.755200000000000000e+04 1.000000000000000000e+06
9.622271173675134150e+02 6.757700000000000000e+04 1.000000000000000000e+06
1.007730682094461713e+03 6.802100000000000000e+04 1.000000000000000000e+06
1.055386103036523082e+03 6.785800000000000000e+04 1.000000000000000000e+06
1.105295141126022145e+03 6.848700000000000000e+04 1.000000000000000000e+06
1.157564369553303550e+03 6.907100000000000000e+04 1.000000000000000000e+06
1.212305401337652711e+03 6.898100000000000000e+04 1.000000000000000000e+06
1.269635127659972795e+03 6.921700000000000000e+04 1.000000000000000000e+06
1.329675967466212569e+03 6.919000000000000000e+04 1.000000000000000000e+06
1.392556128874463411e+03 6.992900000000000000e+04 1.000000000000000000e+06
1.458409882943986304e+03 7.021000000000000000e+04 1.000000000000000000e+06
1.527377850390714002e+03 7.001500000000000000e+04 1.000000000000000000e+06
1.599607301861487940e+03 7.028200000000000000e+04 1.000000000000000000e+06
1.675252472408215453e+03 7.049000000000000000e+04 1.000000000000000000e+06
1.754474890833459767e+03 7.094000000000000000e+04 1.000000000000000000e+06
1.837443724610726804e+03 7.096700000000000000e+04 1.000000000000000000e+06
1.924336141115980126e+03 7.071300000000000000e+04 1.000000000000000000e+06
2.015337685941733071e+03 7.133500000000000000e+04 1.000000000000000000e+06
2.110642679101554677e+03 7.138800000000000000e+04 1.000000000000000000e+06
2.210454629971021404e+03 7.190800000000000000e+04 1.000000000000000000e+06
2.314986671851160736e+03 7.199500000000000000e+04 1.000000000000000000e+06
2.424462017082328202e+03 7.215300000000000000e+04 1.000000000000000000e+06
2.539114433680347247e+03 7.158800000000000000e+04 1.000000000000000000e+06
2.659188744512693575e+03 7.204300000000000000e+04 1.000000000000000000e+06
2.784941350080644042e+03 7.272100000000000000e+04 1.000000000000000000e+06
2.916640776023706621e+03 7.281500000000000000e+04 1.000000000000000000e+06
3.054568246515431838e+03 7.274500000000000000e+04 1.000000000000000000e+06
3.199018284775067059e+03 7.282600000000000000e+04 1.000000000000000000e+06
3.350299341977229687e+03 7.295600000000000000e+04 1.000000000000000000e+06
3.508734455902715126e+03 7.282000000000000000e+04 1.000000000000000000e+06
3.674661940736687939e+03 7.305200000000000000e+04 1.000000000000000000e+06
3.848436109487432986e+03 7.302000000000000000e+04 1.000000000000000000e+06
4.030428030568050417e+03 7.280600000000000000e+04 1.000000000000000000e+06
4.221026320156903239e+03 7.366900000000000000e+04 1.000000000000000000e+06
4.420637972028530385e+03 7.349000000000000000e+04 1.000000000000000000e+06
4.629689226627267999e+03 7.350500000000000000e+04 1.000000000000000000e+06
4.848626481239078203e+03 7.386900000000000000e+04 1.000000000000000000e+06
5.077917243205403793e+03 7.400800000000000000e+04 1.000000000000000000e+06
5.318051128214196979e+03 7.421600000000000000e+04 1.000000000000000000e+06
5.569540905800135988e+03 7.392800000000000000e+04 1.000000000000000000e+06
5.832923594286206026e+03 7.420000000000000000e+04 1.000000000000000000e+06
6.108761607505040047e+03 7.398200000000000000e+04 1.000000000000000000e+06
6.397643955748430017e+03 7.418000000000000000e+04 1.000000000000000000e+06
6.700187503509589988e+03 7.393100000000000000e+04 1.000000000000000000e+06
7.017038286703829726e+03 7.415500000000000000e+04 1.000000000000000000e+06
7.348872892180387680e+03 7.418800000000000000e+04 1.000000000000000000e+06
7.696399902471158384e+03 7.454600000000000000e+04 1.000000000000000000e+06
8.060361408861344898e+03 7.456600000000000000e+04 1.000000000000000000e+06
8.441534596012985276e+03 7.411400000000000000e+04 1.000000000000000000e+06
8.840733401525063528e+03 7.497200000000000000e+04 1.000000000000000000e+06
9.258810253973953877e+03 7.488300000000000000e+04 1.000000000000000000e+06
9.696657893145520575e+03 7.455700000000000000e+04 1.000000000000000000e+06
1.015521127634569166e+04 7.509700000000000000e+04 1.000000000000000000e+06
1.063544957486011117e+04 7.526100000000000000e+04 1.000000000000000000e+06
1.113839826482618264e+04 7.487300000000000000e+04 1.000000000000000000e+06
1.166513131698196230e+04 7.522600000000000000e+04 1.000000000000000000e+06
1.221677348996793080e+04 7.510500000000000000e+04 1.000000000000000000e+06
1.279450273207873397e+04 7.521300000000000000e+04 1.000000000000000000e+06
1.339955269659337137e+04 7.535600000000000000e+04 1.000000000000000000e+06
1.403321537605484627e+04 7.584300000000000000e+04 1.000000000000000000e+06
1.469684386112447464e+04 7.533300000000000000e+04 1.000000000000000000e+06
1.539185522990205391e+04 7.568500000000000000e+04 1.000000000000000000e+06
1.611973357388155455e+04 7.549900000000000000e+04 1.000000000000000000e+06
1.688203316700362848e+04 7.598700000000000000e+04 1.000000000000000000e+06
1.768038178457208778e+04 7.549800000000000000e+04 1.000000000000000000e+06
1.851648417912154036e+04 7.564300000000000000e+04 1.000000000000000000e+06
1.939212572065831046e+04 7.569800000000000000e+04 1.000000000000000000e+06
2.030917620904738942e+04 7.582400000000000000e+04 1.000000000000000000e+06
2.126959386668691877e+04 7.603800000000000000e+04 1.000000000000000000e+06
2.227542951999556317e+04 7.684800000000000000e+04 1.000000000000000000e+06
2.332883097864158481e+04 7.583200000000000000e+04 1.000000000000000000e+06
2.443204762186491644e+04 7.637700000000000000e+04 1.000000000000000000e+06
2.558743520168589021e+04 7.587400000000000000e+04 1.000000000000000000e+06
2.679746087325689587e+04 7.656000000000000000e+04 1.000000000000000000e+06
2.806470846309838817e+04 7.609900000000000000e+04 1.000000000000000000e+06
2.939188398646890346e+04 7.663900000000000000e+04 1.000000000000000000e+06
3.078182142565079994e+04 7.642600000000000000e+04 1.000000000000000000e+06
3.223748878149026859e+04 7.693000000000000000e+04 1.000000000000000000e+06
3.376199441111340275e+04 7.634900000000000000e+04 1.000000000000000000e+06
3.535859366535182926e+04 7.696000000000000000e+04 1.000000000000000000e+06
3.703069584005141223e+04 7.688900000000000000e+04 1.000000000000000000e+06
3.878187145610719745e+04 7.705000000000000000e+04 1.000000000000000000e+06
4.061585988376979367e+04 7.718200000000000000e+04 1.000000000000000000e+06
4.253657732750391733e+04 7.733100000000000000e+04 1.000000000000000000e+06
4.454812518844988517e+04 7.705100000000000000e+04 1.000000000000000000e+06
4.665479882234468096e+04 7.726700000000000000e+04 1.000000000000000000e+06
4.886109671160326252e+04 7.742000000000000000e+04 1.000000000000000000e+06
5.117173007114609936e+04 7.740800000000000000e+04 1.000000000000000000e+06
5.359163290848514589e+04 7.765200000000000000e+04 1.000000000000000000e+06
5.612597255954965658e+04 7.769500000000000000e+04 1.000000000000000000e+06
5.878016072274911858e+04 7.795800000000000000e+04 1.000000000000000000e+06
6.155986501483514439e+04 7.818400000000000000e+04 1.000000000000000000e+06
6.447102107323869859e+04 7.799300000000000000e+04 1.000000000000000000e+06
6.751984523072493903e+04 7.787200000000000000e+04 1.000000000000000000e+06
7.071284778942995763e+04 7.816000000000000000e+04 1.000000000000000000e+06
7.405684692262441968e+04 7.773000000000000000e+04 1.000000000000000000e+06
7.755898323389001598e+04 7.841400000000000000e+04 1.000000000000000000e+06
8.122673500479719951e+04 7.829800000000000000e+04 1.000000000000000000e+06
8.506793416364170844e+04 7.863800000000000000e+04 1.000000000000000000e+06
8.909078300934142317e+04 7.884600000000000000e+04 1.000000000000000000e+06
9.330387172620360798e+04 7.835400000000000000e+04 1.000000000000000000e+06
9.771619672696181806e+04 7.878000000000000000e+04 1.000000000000000000e+06
1.023371798632521241e+05 7.913400000000000000e+04 1.000000000000000000e+06
1.071766885445503431e+05 7.899300000000000000e+04 1.000000000000000000e+06
1.122450568085305858e+05 7.927500000000000000e+04 1.000000000000000000e+06
1.175531073878369934e+05 7.909400000000000000e+04 1.000000000000000000e+06
1.231121748203892057e+05 7.945500000000000000e+04 1.000000000000000000e+06
1.289341296525715734e+05 7.992800000000000000e+04 1.000000000000000000e+06
1.350314037869872118e+05 7.939200000000000000e+04 1.000000000000000000e+06
1.414170170289023954e+05 7.989200000000000000e+04 1.000000000000000000e+06
1.481046048880676972e+05 8.075000000000000000e+04 1.000000000000000000e+06
1.551084476952840632e+05 8.034600000000000000e+04 1.000000000000000000e+06
1.624435010958865460e+05 8.021500000000000000e+04 1.000000000000000000e+06
1.701254279852589243e+05 8.031400000000000000e+04 1.000000000000000000e+06
1.781706319545732404e+05 8.026500000000000000e+04 1.000000000000000000e+06
1.865962923181745864e+05 8.090700000000000000e+04 1.000000000000000000e+06
1.954204007974051347e+05 8.072400000000000000e+04 1.000000000000000000e+06
2.046617999391989724e+05 8.099200000000000000e+04 1.000000000000000000e+06
2.143402233514858817e+05 8.120400000000000000e+04 1.000000000000000000e+06
2.244763378413223836e+05 8.090300000000000000e+04 1.000000000000000000e+06
2.350917875457284390e+05 8.139600000000000000e+04 1.000000000000000000e+06
2.462092401494625374e+05 8.112400000000000000e+04 1.000000000000000000e+06
2.578524352884276304e+05 8.144000000000000000e+04 1.000000000000000000e+06
2.700462352420681855e+05 8.115300000000000000e+04 1.000000000000000000e+06
2.828166780230029253e+05 8.147100000000000000e+04 1.000000000000000000e+06
2.961910329772553523e+05 8.198900000000000000e+04 1.000000000000000000e+06
3.101978590138099971e+05 8.221500000000000000e+04 1.000000000000000000e+06
3.248670655878374819e+05 8.246600000000000000e+04 1.000000000000000000e+06
3.402299765678071417e+05 8.233900000000000000e+04 1.000000000000000000e+06
3.563193971228591399e+05 8.255700000000000000e+04 1.000000000000000000e+06
3.731696837732755812e+05 8.278700000000000000e+04 1.000000000000000000e+06
3.908168177536264411e+05 8.330000000000000000e+04 1.000000000000000000e+06
4.092984818452442414e+05 8.291000000000000000e+04 1.000000000000000000e+06
4.286541408420933876e+05 8.341700000000000000e+04 1.000000000000000000e+06
4.489251258218607400e+05 8.365400000000000000e+04 1.000000000000000000e+06
4.701547224022129667e+05 8.329700000000000000e+04 1.000000000000000000e+06
4.923882631706741522e+05 8.373300000000000000e+04 1.000000000000000000e+06
5.156732244854973978e+05 8.411100000000000000e+04 1.000000000000000000e+06
5.400593278542374028e+05 8.419600000000000000e+04 1.000000000000000000e+06
5.655986461065001786e+05 8.414400000000000000e+04 1.000000000000000000e+06
5.923457145875806455e+05 8.467300000000000000e+04 1.000000000000000000e+06
6.203576476104280446e+05 8.486700000000000000e+04 1.000000000000000000e+06
6.496942604146124795e+05 8.492300000000000000e+04 1.000000000000000000e+06
6.804181968927093549e+05 8.548100000000000000e+04 1.000000000000000000e+06
7.125950633568410994e+05 8.540600000000000000e+04 1.000000000000000000e+06
7.462935686310144374e+05 8.556400000000000000e+04 1.000000000000000000e+06
7.815856707684090361e+05 8.533800000000000000e+04 1.000000000000000000e+06
8.185467307069021044e+05 8.572200000000000000e+04 1.000000000000000000e+06
8.572556731909324881e+05 8.578200000000000000e+04 1.000000000000000000e+06
8.977951553033331875e+05 8.606100000000000000e+04 1.000000000000000000e+06
9.402517429670132697e+05 8.619300000000000000e+04 1.000000000000000000e+06
9.847160957933764439e+05 8.674800000000000000e+04 1.000000000000000000e+06
1.031283160672184778e+06 8.721000000000000000e+04 1.000000000000000000e+06
1.080052374516254058e+06 8.753700000000000000e+04 1.000000000000000000e+06
1.131127876593921334e+06 8.733800000000000000e+04 1.000000000000000000e+06
1.184618730902684852e+06 8.769700000000000000e+04 1.000000000000000000e+06
1.240639159058831865e+06 8.811800000000000000e+04 1.000000000000000000e+06
1.299308784200417111e+06 8.836200000000000000e+04 1.000000000000000000e+06
1.360752886424333090e+06 8.853200000000000000e+04 1.000000000000000000e+06
1.425102670302999206e+06 8.846600000000000000e+04 1.000000000000000000e+06
1.492495545051829191e+06 8.883700000000000000e+04 1.000000000000000000e+06
1.563075417945817346e+06 8.941000000000000000e+04 1.000000000000000000e+06
1.636993001611701911e+06 8.890500000000000000e+04 1.000000000000000000e+06
1.714406135851972038e+06 8.963000000000000000e+04 1.000000000000000000e+06
1.795480124687830452e+06 9.008700000000000000e+04 1.000000000000000000e+06
1.880388089340916602e+06 8.977600000000000000e+04 1.000000000000000000e+06
1.969311337907421868e+06 9.035900000000000000e+04 1.000000000000000000e+06
2.062439752514092717e+06 9.075400000000000000e+04 1.000000000000000000e+06
2.159972194782717153e+06 9.061200000000000000e+04 1.000000000000000000e+06
2.262116930469026323e+06 9.144000000000000000e+04 1.000000000000000000e+06
2.369092074182631914e+06 9.179200000000000000e+04 1.000000000000000000e+06
2.481126055137770250e+06 9.174600000000000000e+04 1.000000000000000000e+06
2.598458104929246940e+06 9.200300000000000000e+04 1.000000000000000000e+06
2.721338768375308719e+06 9.205700000000000000e+04 1.000000000000000000e+06
2.850030438518105075e+06 9.297500000000000000e+04 1.000000000000000000e+06
2.984807916924327612e+06 9.235000000000000000e+04 1.000000000000000000e+06
3.125959000482284464e+06 9.279500000000000000e+04 1.000000000000000000e+06
3.273785095948576927e+06 9.372300000000000000e+04 1.000000000000000000e+06
3.428601863556590397e+06 9.363000000000000000e+04 1.000000000000000000e+06
3.590739891061055008e+06 9.339700000000000000e+04 1.000000000000000000e+06
3.760545399658175651e+06 9.417100000000000000e+04 1.000000000000000000e+06
3.938380983288488816e+06 9.504400000000000000e+04 1.000000000000000000e+06
4.124626382901356556e+06 9.531200000000000000e+04 1.000000000000000000e+06
4.319679297334173694e+06 9.452200000000000000e+04 1.000000000000000000e+06
4.523956232538058423e+06 9.545600000000000000e+04 1.000000000000000000e+06
4.737893390963143669e+06 9.562200000000000000e+04 1.000000000000000000e+06
4.961947603002907708e+06 9.615200000000000000e+04 1.000000000000000000e+06
5.196597302486197092e+06 9.642500000000000000e+04 1.000000000000000000e+06
5.442343548300271854e+06 9.689100000000000000e+04 1.000000000000000000e+06
5.699711094326075166e+06 9.704300000000000000e+04 1.000000000000000000e+06
5.969249509970739484e+06 9.730100000000000000e+04 1.000000000000000000e+06
6.251534353689711541e+06 9.756700000000000000e+04 1.000000000000000000e+06
6.547168402004742995e+06 9.805400000000000000e+04 1.000000000000000000e+06
6.856782936641737819e+06 9.857900000000000000e+04 1.000000000000000000e+06
7.181039092537356541e+06 9.838500000000000000e+04 1.000000000000000000e+06
7.520629269592407160e+06 9.913000000000000000e+04 1.000000000000000000e+06
7.876278611187063158e+06 9.990200000000000000e+04 1.000000000000000000e+06
8.248746552614580840e+06 1.001300000000000000e+05 1.000000000000000000e+06
8.638828442740453407e+06 1.004670000000000000e+05 1.000000000000000000e+06
9.047357242349293083e+06 1.003210000000000000e+05 1.000000000000000000e+06
9.475205302806546912e+06 1.012350000000000000e+05 1.000000000000000000e+06
9.923286228832544759e+06 1.013200000000000000e+05 1.000000000000000000e+06
1.039255682936713099e+07 1.019150000000000000e+05 1.000000000000000000e+06
1.088401916069005430e+07 1.022470000000000000e+05 1.000000000000000000e+06
1.139872266616052575e+07 1.027530000000000000e+05 1.000000000000000000e+06
1.193776641714435816e+07 1.026740000000000000e+05 1.000000000000000000e+06
1.250230145991455950e+07 1.030310000000000000e+05 1.000000000000000000e+06
1.309353327353609540e+07 1.038080000000000000e+05 1.000000000000000000e+06
1.371272434398400784e+07 1.036100000000000000e+05 1.000000000000000000e+06
1.436119685999080166e+07 1.039400000000000000e+05 1.000000000000000000e+06
1.504033553638025187e+07 1.045680000000000000e+05 1.000000000000000000e+06
1.575159057091624476e+07 1.053460000000000000e+05 1.000000000000000000e+06
1.649648074098020606e+07 1.056490000000000000e+05 1.000000000000000000e+06
1.727659664669038355e+07 1.054860000000000000e+05 1.000000000000000000e+06
1.809360410738716647e+07 1.057410000000000000e+05 1.000000000000000000e+06
1.894924771873823553e+07 1.071750000000000000e+05 1.000000000000000000e+06
1.984535457805803046e+07 1.069030000000000000e+05 1.000000000000000000e+06
2.078383818579759449e+07 1.074660000000000000e+05 1.000000000000000000e+06
